[Measurement conditions]
Sample identification,
Comment - 1,"Configuration=FACTORY CONFIGURATION, Owner=User-1, Creation date=2008/9/16 ?? 08:01:59"
Comment - 2,"Goniometer=PW3050/65 (Theta/2Theta); Minimum step size 2Theta:0.0001; Minimum step size Omega:0.0001"
Comment - 3,"Sample stage=MRD Cradle; Minimum step size Phi:0.01; Minimum step size Psi:0.01; Minimum step size X:0.01; Minimum step size Y:0.01; Minimum step size Z:0.001"
Comment - 4,"Diffractometer system=XPERT-PRO"
Comment - 5,"Measurement program=2Theta scan for GIAD, Owner=joe, Creation date=2019/6/22 ?? 04:59:21"
Anode material,Cu
K-Alpha1 wavelength,1.5405980
K-Alpha2 wavelength,1.5444260
Ratio K-Alpha2/K-Alpha1,0.500
Divergence slit,Fixed,10.00mm
Receiving slit,0.10
Monochromator used,NO
Generator voltage, 45
Tube current, 30
File date and time,10/днды/2023 03:21
Unit cell,
h k l, 0 0 0
Scan axis,2Theta-Omega
Scan range,20.00000,90.00500
Scan step size,0.0150000
Omega offset,-0.22720
No. of points, 4667
Scan type,CONTINUOUS
Phi,0.00
Psi,0.13
X,0.00
Y,0.00
Z,8.159
Time per step,2.00
[Scan points]
Angle,Intensity
20.00750,17048.0
20.02250,17397.0
20.03750,17087.0
20.05250,17159.0
20.06750,17403.0
20.08250,17109.0
20.09750,17124.0
20.11250,17133.0
20.12750,17431.0
20.14250,17130.0
20.15750,17694.0
20.17250,17425.0
20.18750,17575.0
20.20250,17485.0
20.21750,17490.0
20.23250,17745.0
20.24750,17594.0
20.26250,17781.0
20.27750,17479.0
20.29250,17887.0
20.30750,17757.0
20.32250,17460.0
20.33750,17430.0
20.35250,18019.0
20.36750,17881.0
20.38250,17961.0
20.39750,17718.0
20.41250,18031.0
20.42750,17871.0
20.44250,18297.0
20.45750,17950.0
20.47250,17703.0
20.48750,17715.0
20.50250,17701.0
20.51750,17878.0
20.53250,18188.0
20.54750,18286.0
20.56250,18343.0
20.57750,18611.0
20.59250,18167.0
20.60750,18370.0
20.62250,18565.0
20.63750,18454.0
20.65250,17975.0
20.66750,18195.0
20.68250,18396.0
20.69750,18323.0
20.71250,18255.0
20.72750,18664.0
20.74250,18636.0
20.75750,18480.0
20.77250,18686.0
20.78750,18723.0
20.80250,18452.0
20.81750,18380.0
20.83250,18442.0
20.84750,19352.0
20.86250,18923.0
20.87750,18741.0
20.89250,18773.0
20.90750,19006.0
20.92250,18652.0
20.93750,19294.0
20.95250,18847.0
20.96750,19076.0
20.98250,19210.0
20.99750,19193.0
21.01250,19023.0
21.02750,18759.0
21.04250,19215.0
21.05750,19071.0
21.07250,19051.0
21.08750,18973.0
21.10250,19212.0
21.11750,19002.0
21.13250,19236.0
21.14750,19137.0
21.16250,19449.0
21.17750,19254.0
21.19250,19271.0
21.20750,19240.0
21.22250,19237.0
21.23750,19305.0
21.25250,19511.0
21.26750,19637.0
21.28250,19548.0
21.29750,19621.0
21.31250,19889.0
21.32750,19831.0
21.34250,19906.0
21.35750,19610.0
21.37250,19769.0
21.38750,19669.0
21.40250,19726.0
21.41750,19431.0
21.43250,19647.0
21.44750,19868.0
21.46250,19509.0
21.47750,19705.0
21.49250,19873.0
21.50750,19921.0
21.52250,19804.0
21.53750,19628.0
21.55250,19655.0
21.56750,20030.0
21.58250,19865.0
21.59750,20067.0
21.61250,19960.0
21.62750,19675.0
21.64250,20131.0
21.65750,20008.0
21.67250,20107.0
21.68750,19856.0
21.70250,19960.0
21.71750,19828.0
21.73250,20197.0
21.74750,20090.0
21.76250,20042.0
21.77750,20151.0
21.79250,20179.0
21.80750,20035.0
21.82250,20087.0
21.83750,20252.0
21.85250,20025.0
21.86750,20102.0
21.88250,20020.0
21.89750,20411.0
21.91250,20095.0
21.92750,20288.0
21.94250,20293.0
21.95750,20669.0
21.97250,20335.0
21.98750,20460.0
22.00250,20414.0
22.01750,21014.0
22.03250,20682.0
22.04750,20352.0
22.06250,20807.0
22.07750,21073.0
22.09250,20352.0
22.10750,20476.0
22.12250,20129.0
22.13750,20523.0
22.15250,20516.0
22.16750,20591.0
22.18250,20523.0
22.19750,20544.0
22.21250,20515.0
22.22750,20865.0
22.24250,20402.0
22.25750,20656.0
22.27250,20866.0
22.28750,20929.0
22.30250,20823.0
22.31750,20740.0
22.33250,20455.0
22.34750,20479.0
22.36250,20729.0
22.37750,20862.0
22.39250,20966.0
22.40750,21117.0
22.42250,20858.0
22.43750,20595.0
22.45250,21098.0
22.46750,20872.0
22.48250,20830.0
22.49750,21527.0
22.51250,21285.0
22.52750,21053.0
22.54250,20673.0
22.55750,20883.0
22.57250,20526.0
22.58750,21027.0
22.60250,21087.0
22.61750,21045.0
22.63250,21300.0
22.64750,21232.0
22.66250,21246.0
22.67750,21123.0
22.69250,21097.0
22.70750,21064.0
22.72250,20934.0
22.73750,21405.0
22.75250,21509.0
22.76750,21325.0
22.78250,20975.0
22.79750,21354.0
22.81250,21057.0
22.82750,21586.0
22.84250,21368.0
22.85750,21211.0
22.87250,21405.0
22.88750,21524.0
22.90250,21353.0
22.91750,21393.0
22.93250,21708.0
22.94750,21785.0
22.96250,21304.0
22.97750,21741.0
22.99250,21514.0
23.00750,21509.0
23.02250,21529.0
23.03750,21790.0
23.05250,21677.0
23.06750,21685.0
23.08250,21621.0
23.09750,21368.0
23.11250,21519.0
23.12750,21658.0
23.14250,21358.0
23.15750,21815.0
23.17250,21368.0
23.18750,21470.0
23.20250,21462.0
23.21750,21983.0
23.23250,21128.0
23.24750,21433.0
23.26250,21274.0
23.27750,21138.0
23.29250,21729.0
23.30750,21472.0
23.32250,21503.0
23.33750,21459.0
23.35250,21490.0
23.36750,21479.0
23.38250,21273.0
23.39750,21776.0
23.41250,21751.0
23.42750,21566.0
23.44250,21684.0
23.45750,21719.0
23.47250,21538.0
23.48750,21877.0
23.50250,21433.0
23.51750,21612.0
23.53250,21565.0
23.54750,21351.0
23.56250,21426.0
23.57750,21497.0
23.59250,21473.0
23.60750,21905.0
23.62250,21843.0
23.63750,21852.0
23.65250,22019.0
23.66750,21320.0
23.68250,21882.0
23.69750,21933.0
23.71250,21606.0
23.72750,21664.0
23.74250,21523.0
23.75750,21938.0
23.77250,22002.0
23.78750,22043.0
23.80250,21616.0
23.81750,21550.0
23.83250,21606.0
23.84750,21578.0
23.86250,21684.0
23.87750,21784.0
23.89250,21379.0
23.90750,21475.0
23.92250,21739.0
23.93750,21765.0
23.95250,21839.0
23.96750,22025.0
23.98250,21883.0
23.99750,21665.0
24.01250,21461.0
24.02750,21912.0
24.04250,21609.0
24.05750,21953.0
24.07250,21634.0
24.08750,21707.0
24.10250,22426.0
24.11750,21800.0
24.13250,22043.0
24.14750,21666.0
24.16250,21978.0
24.17750,22199.0
24.19250,22221.0
24.20750,22247.0
24.22250,22358.0
24.23750,22066.0
24.25250,22262.0
24.26750,22285.0
24.28250,22394.0
24.29750,22477.0
24.31250,22411.0
24.32750,22079.0
24.34250,21934.0
24.35750,21810.0
24.37250,21961.0
24.38750,22033.0
24.40250,22190.0
24.41750,22373.0
24.43250,22145.0
24.44750,22475.0
24.46250,22165.0
24.47750,22264.0
24.49250,22458.0
24.50750,22289.0
24.52250,22107.0
24.53750,21905.0
24.55250,22489.0
24.56750,22538.0
24.58250,22362.0
24.59750,22126.0
24.61250,21988.0
24.62750,22094.0
24.64250,22185.0
24.65750,22345.0
24.67250,22222.0
24.68750,22469.0
24.70250,22115.0
24.71750,22417.0
24.73250,22413.0
24.74750,22376.0
24.76250,22378.0
24.77750,22384.0
24.79250,22479.0
24.80750,22281.0
24.82250,22243.0
24.83750,22689.0
24.85250,22613.0
24.86750,22871.0
24.88250,22995.0
24.89750,22597.0
24.91250,22734.0
24.92750,22560.0
24.94250,22169.0
24.95750,22237.0
24.97250,22419.0
24.98750,22608.0
25.00250,22744.0
25.01750,22160.0
25.03250,22451.0
25.04750,22593.0
25.06250,22231.0
25.07750,22108.0
25.09250,21933.0
25.10750,22311.0
25.12250,22533.0
25.13750,22486.0
25.15250,22413.0
25.16750,22483.0
25.18250,22468.0
25.19750,22473.0
25.21250,22488.0
25.22750,22152.0
25.24250,22543.0
25.25750,22425.0
25.27250,22555.0
25.28750,22549.0
25.30250,22026.0
25.31750,22283.0
25.33250,22316.0
25.34750,22361.0
25.36250,22608.0
25.37750,22478.0
25.39250,22596.0
25.40750,22612.0
25.42250,22686.0
25.43750,22480.0
25.45250,22839.0
25.46750,22672.0
25.48250,22430.0
25.49750,22505.0
25.51250,22836.0
25.52750,22796.0
25.54250,22776.0
25.55750,22988.0
25.57250,22752.0
25.58750,22919.0
25.60250,22720.0
25.61750,22943.0
25.63250,23020.0
25.64750,22861.0
25.66250,22572.0
25.67750,22704.0
25.69250,22637.0
25.70750,22673.0
25.72250,22573.0
25.73750,22735.0
25.75250,22906.0
25.76750,22507.0
25.78250,22725.0
25.79750,22676.0
25.81250,22810.0
25.82750,22452.0
25.84250,22775.0
25.85750,22952.0
25.87250,22683.0
25.88750,23029.0
25.90250,22906.0
25.91750,22802.0
25.93250,22600.0
25.94750,22683.0
25.96250,22707.0
25.97750,22835.0
25.99250,22852.0
26.00750,23005.0
26.02250,22828.0
26.03750,22791.0
26.05250,23047.0
26.06750,22750.0
26.08250,23200.0
26.09750,23005.0
26.11250,22802.0
26.12750,23041.0
26.14250,22664.0
26.15750,23081.0
26.17250,22902.0
26.18750,22603.0
26.20250,22691.0
26.21750,22706.0
26.23250,22759.0
26.24750,22744.0
26.26250,22570.0
26.27750,22509.0
26.29250,22702.0
26.30750,22597.0
26.32250,22667.0
26.33750,22617.0
26.35250,22668.0
26.36750,22560.0
26.38250,22490.0
26.39750,22444.0
26.41250,22377.0
26.42750,22568.0
26.44250,22486.0
26.45750,22513.0
26.47250,22343.0
26.48750,22125.0
26.50250,22591.0
26.51750,22603.0
26.53250,22363.0
26.54750,22518.0
26.56250,22508.0
26.57750,22386.0
26.59250,22174.0
26.60750,22038.0
26.62250,21865.0
26.63750,21993.0
26.65250,22086.0
26.66750,22024.0
26.68250,21923.0
26.69750,22000.0
26.71250,22212.0
26.72750,22082.0
26.74250,22014.0
26.75750,22241.0
26.77250,21811.0
26.78750,21752.0
26.80250,21810.0
26.81750,21412.0
26.83250,22099.0
26.84750,22455.0
26.86250,22092.0
26.87750,21783.0
26.89250,22001.0
26.90750,21898.0
26.92250,22056.0
26.93750,22196.0
26.95250,21812.0
26.96750,22188.0
26.98250,21903.0
26.99750,21937.0
27.01250,21741.0
27.02750,21921.0
27.04250,21433.0
27.05750,21777.0
27.07250,21636.0
27.08750,21708.0
27.10250,21452.0
27.11750,21827.0
27.13250,21683.0
27.14750,21466.0
27.16250,21611.0
27.17750,21333.0
27.19250,21335.0
27.20750,21346.0
27.22250,21469.0
27.23750,21373.0
27.25250,21119.0
27.26750,21303.0
27.28250,21194.0
27.29750,20932.0
27.31250,20926.0
27.32750,21039.0
27.34250,20901.0
27.35750,20792.0
27.37250,20973.0
27.38750,21433.0
27.40250,20899.0
27.41750,21088.0
27.43250,20897.0
27.44750,21051.0
27.46250,21041.0
27.47750,20984.0
27.49250,20516.0
27.50750,20557.0
27.52250,20643.0
27.53750,21039.0
27.55250,20305.0
27.56750,20553.0
27.58250,20661.0
27.59750,20501.0
27.61250,20123.0
27.62750,20198.0
27.64250,20518.0
27.65750,20349.0
27.67250,20316.0
27.68750,20221.0
27.70250,19995.0
27.71750,19985.0
27.73250,20213.0
27.74750,20130.0
27.76250,20006.0
27.77750,20253.0
27.79250,20045.0
27.80750,19935.0
27.82250,19990.0
27.83750,19974.0
27.85250,20077.0
27.86750,19992.0
27.88250,19952.0
27.89750,20137.0
27.91250,19911.0
27.92750,20006.0
27.94250,19719.0
27.95750,19730.0
27.97250,19833.0
27.98750,19802.0
28.00250,19653.0
28.01750,19674.0
28.03250,19594.0
28.04750,19599.0
28.06250,19649.0
28.07750,19702.0
28.09250,19506.0
28.10750,19466.0
28.12250,19325.0
28.13750,19447.0
28.15250,19627.0
28.16750,19398.0
28.18250,19713.0
28.19750,19782.0
28.21250,19639.0
28.22750,19513.0
28.24250,19578.0
28.25750,19833.0
28.27250,19634.0
28.28750,19616.0
28.30250,19848.0
28.31750,19568.0
28.33250,19644.0
28.34750,19626.0
28.36250,19854.0
28.37750,20078.0
28.39250,19792.0
28.40750,19959.0
28.42250,19606.0
28.43750,19676.0
28.45250,19691.0
28.46750,19418.0
28.48250,19410.0
28.49750,19229.0
28.51250,18991.0
28.52750,19081.0
28.54250,18763.0
28.55750,18865.0
28.57250,18597.0
28.58750,18504.0
28.60250,18473.0
28.61750,18429.0
28.63250,18091.0
28.64750,18652.0
28.66250,18345.0
28.67750,18436.0
28.69250,18136.0
28.70750,17981.0
28.72250,18158.0
28.73750,18007.0
28.75250,17936.0
28.76750,17871.0
28.78250,17769.0
28.79750,17621.0
28.81250,17813.0
28.82750,17927.0
28.84250,17634.0
28.85750,17511.0
28.87250,17444.0
28.88750,17663.0
28.90250,17664.0
28.91750,17611.0
28.93250,17455.0
28.94750,17428.0
28.96250,17550.0
28.97750,17201.0
28.99250,17314.0
29.00750,17056.0
29.02250,17054.0
29.03750,17177.0
29.05250,17161.0
29.06750,17232.0
29.08250,17169.0
29.09750,17247.0
29.11250,17185.0
29.12750,17248.0
29.14250,17504.0
29.15750,17370.0
29.17250,17463.0
29.18750,17651.0
29.20250,17705.0
29.21750,18276.0
29.23250,18182.0
29.24750,18548.0
29.26250,18653.0
29.27750,18863.0
29.29250,18949.0
29.30750,19226.0
29.32250,19235.0
29.33750,19103.0
29.35250,18985.0
29.36750,19213.0
29.38250,19035.0
29.39750,19225.0
29.41250,19097.0
29.42750,18847.0
29.44250,18922.0
29.45750,18751.0
29.47250,18452.0
29.48750,18337.0
29.50250,18308.0
29.51750,18237.0
29.53250,17871.0
29.54750,17798.0
29.56250,17476.0
29.57750,17469.0
29.59250,16990.0
29.60750,16877.0
29.62250,16843.0
29.63750,16794.0
29.65250,16554.0
29.66750,16398.0
29.68250,16302.0
29.69750,16298.0
29.71250,16053.0
29.72750,16111.0
29.74250,15746.0
29.75750,15568.0
29.77250,15453.0
29.78750,15621.0
29.80250,15590.0
29.81750,15129.0
29.83250,15122.0
29.84750,15099.0
29.86250,15215.0
29.87750,15089.0
29.89250,14756.0
29.90750,15025.0
29.92250,15057.0
29.93750,14907.0
29.95250,14693.0
29.96750,14773.0
29.98250,14585.0
29.99750,14643.0
30.01250,14638.0
30.02750,14730.0
30.04250,14596.0
30.05750,14811.0
30.07250,14703.0
30.08750,14935.0
30.10250,15219.0
30.11750,15575.0
30.13250,15595.0
30.14750,16118.0
30.16250,16783.0
30.17750,17209.0
30.19250,17723.0
30.20750,18297.0
30.22250,19136.0
30.23750,19849.0
30.25250,20286.0
30.26750,20468.0
30.28250,21109.0
30.29750,21500.0
30.31250,21711.0
30.32750,21852.0
30.34250,22212.0
30.35750,21795.0
30.37250,21828.0
30.38750,21262.0
30.40250,21298.0
30.41750,20723.0
30.43250,19954.0
30.44750,19291.0
30.46250,18860.0
30.47750,18405.0
30.49250,17881.0
30.50750,17700.0
30.52250,16958.0
30.53750,16454.0
30.55250,16015.0
30.56750,15069.0
30.58250,14591.0
30.59750,14301.0
30.61250,13721.0
30.62750,13314.0
30.64250,13233.0
30.65750,12763.0
30.67250,12775.0
30.68750,12662.0
30.70250,12656.0
30.71750,12537.0
30.73250,12403.0
30.74750,12345.0
30.76250,12104.0
30.77750,12247.0
30.79250,12051.0
30.80750,11861.0
30.82250,11974.0
30.83750,11831.0
30.85250,11856.0
30.86750,11917.0
30.88250,11999.0
30.89750,11901.0
30.91250,11890.0
30.92750,11621.0
30.94250,11885.0
30.95750,11700.0
30.97250,11592.0
30.98750,11510.0
31.00250,11364.0
31.01750,11396.0
31.03250,11451.0
31.04750,11403.0
31.06250,11370.0
31.07750,11444.0
31.09250,11414.0
31.10750,11133.0
31.12250,11178.0
31.13750,11119.0
31.15250,11080.0
31.16750,11256.0
31.18250,11044.0
31.19750,11335.0
31.21250,10734.0
31.22750,10910.0
31.24250,11074.0
31.25750,10896.0
31.27250,10807.0
31.28750,11155.0
31.30250,10901.0
31.31750,10873.0
31.33250,10729.0
31.34750,10828.0
31.36250,10914.0
31.37750,10620.0
31.39250,10662.0
31.40750,10619.0
31.42250,10464.0
31.43750,10297.0
31.45250,10448.0
31.46750,10381.0
31.48250,10328.0
31.49750,10227.0
31.51250,10164.0
31.52750,10021.0
31.54250,9884.0
31.55750,9926.0
31.57250,9916.0
31.58750,9892.0
31.60250,9889.0
31.61750,9578.0
31.63250,9645.0
31.64750,9859.0
31.66250,9726.0
31.67750,9673.0
31.69250,9706.0
31.70750,9504.0
31.72250,9297.0
31.73750,9363.0
31.75250,9351.0
31.76750,9426.0
31.78250,9406.0
31.79750,9230.0
31.81250,9190.0
31.82750,9341.0
31.84250,9247.0
31.85750,9218.0
31.87250,9217.0
31.88750,9083.0
31.90250,9130.0
31.91750,9137.0
31.93250,9008.0
31.94750,8836.0
31.96250,8668.0
31.97750,8947.0
31.99250,8794.0
32.00750,8487.0
32.02250,8655.0
32.03750,8895.0
32.05250,8880.0
32.06750,8766.0
32.08250,8713.0
32.09750,8701.0
32.11250,8705.0
32.12750,8629.0
32.14250,8487.0
32.15750,8615.0
32.17250,8489.0
32.18750,8531.0
32.20250,8438.0
32.21750,8484.0
32.23250,8353.0
32.24750,8580.0
32.26250,8458.0
32.27750,8437.0
32.29250,8311.0
32.30750,8328.0
32.32250,8416.0
32.33750,8095.0
32.35250,8192.0
32.36750,8190.0
32.38250,7978.0
32.39750,8076.0
32.41250,8120.0
32.42750,8016.0
32.44250,7960.0
32.45750,8111.0
32.47250,7996.0
32.48750,7890.0
32.50250,7717.0
32.51750,7741.0
32.53250,7822.0
32.54750,7697.0
32.56250,7839.0
32.57750,7702.0
32.59250,7709.0
32.60750,7869.0
32.62250,7680.0
32.63750,7672.0
32.65250,7665.0
32.66750,7621.0
32.68250,7480.0
32.69750,7485.0
32.71250,7501.0
32.72750,7703.0
32.74250,7673.0
32.75750,7519.0
32.77250,7463.0
32.78750,7427.0
32.80250,7330.0
32.81750,7328.0
32.83250,7233.0
32.84750,7301.0
32.86250,7286.0
32.87750,7232.0
32.89250,7174.0
32.90750,7157.0
32.92250,7241.0
32.93750,7187.0
32.95250,7211.0
32.96750,6997.0
32.98250,6968.0
32.99750,7072.0
33.01250,6914.0
33.02750,6930.0
33.04250,7117.0
33.05750,7091.0
33.07250,7065.0
33.08750,6812.0
33.10250,6754.0
33.11750,6830.0
33.13250,6856.0
33.14750,6807.0
33.16250,6820.0
33.17750,6840.0
33.19250,6822.0
33.20750,6875.0
33.22250,6769.0
33.23750,6804.0
33.25250,6673.0
33.26750,6722.0
33.28250,6758.0
33.29750,6671.0
33.31250,6878.0
33.32750,6818.0
33.34250,6782.0
33.35750,6792.0
33.37250,6766.0
33.38750,6684.0
33.40250,6704.0
33.41750,6744.0
33.43250,6714.0
33.44750,6809.0
33.46250,6680.0
33.47750,6558.0
33.49250,6582.0
33.50750,6695.0
33.52250,6647.0
33.53750,6464.0
33.55250,6619.0
33.56750,6590.0
33.58250,6735.0
33.59750,6771.0
33.61250,6381.0
33.62750,6599.0
33.64250,6662.0
33.65750,6539.0
33.67250,6630.0
33.68750,6508.0
33.70250,6605.0
33.71750,6579.0
33.73250,6641.0
33.74750,6487.0
33.76250,6485.0
33.77750,6483.0
33.79250,6356.0
33.80750,6432.0
33.82250,6407.0
33.83750,6421.0
33.85250,6305.0
33.86750,6363.0
33.88250,6367.0
33.89750,6428.0
33.91250,6286.0
33.92750,6257.0
33.94250,6158.0
33.95750,6312.0
33.97250,6168.0
33.98750,6320.0
34.00250,6206.0
34.01750,6130.0
34.03250,6213.0
34.04750,6144.0
34.06250,6224.0
34.07750,6246.0
34.09250,6189.0
34.10750,6188.0
34.12250,6107.0
34.13750,6190.0
34.15250,6320.0
34.16750,6208.0
34.18250,6331.0
34.19750,6490.0
34.21250,6702.0
34.22750,6809.0
34.24250,7093.0
34.25750,7282.0
34.27250,7504.0
34.28750,7975.0
34.30250,8256.0
34.31750,8560.0
34.33250,9070.0
34.34750,9520.0
34.36250,9985.0
34.37750,10385.0
34.39250,10804.0
34.40750,11289.0
34.42250,11533.0
34.43750,11867.0
34.45250,11845.0
34.46750,11862.0
34.48250,11935.0
34.49750,11871.0
34.51250,11603.0
34.52750,11564.0
34.54250,11499.0
34.55750,10883.0
34.57250,10876.0
34.58750,10355.0
34.60250,10408.0
34.61750,10042.0
34.63250,9494.0
34.64750,9200.0
34.66250,8931.0
34.67750,8493.0
34.69250,8206.0
34.70750,7780.0
34.72250,7417.0
34.73750,7347.0
34.75250,7046.0
34.76750,7052.0
34.78250,6795.0
34.79750,6597.0
34.81250,6612.0
34.82750,6659.0
34.84250,6671.0
34.85750,6651.0
34.87250,6808.0
34.88750,6770.0
34.90250,6981.0
34.91750,6988.0
34.93250,7046.0
34.94750,7253.0
34.96250,7104.0
34.97750,7101.0
34.99250,7187.0
35.00750,7150.0
35.02250,7165.0
35.03750,7158.0
35.05250,7015.0
35.06750,6960.0
35.08250,6848.0
35.09750,6659.0
35.11250,6455.0
35.12750,6456.0
35.14250,6423.0
35.15750,6316.0
35.17250,6356.0
35.18750,6153.0
35.20250,5886.0
35.21750,6108.0
35.23250,6005.0
35.24750,6097.0
35.26250,6181.0
35.27750,6471.0
35.29250,6935.0
35.30750,7342.0
35.32250,7570.0
35.33750,8189.0
35.35250,8735.0
35.36750,9166.0
35.38250,9897.0
35.39750,10617.0
35.41250,11119.0
35.42750,12048.0
35.44250,12878.0
35.45750,13303.0
35.47250,13969.0
35.48750,14544.0
35.50250,14496.0
35.51750,15106.0
35.53250,14939.0
35.54750,15063.0
35.56250,14987.0
35.57750,15097.0
35.59250,14536.0
35.60750,14042.0
35.62250,13707.0
35.63750,13448.0
35.65250,12978.0
35.66750,12627.0
35.68250,12016.0
35.69750,11427.0
35.71250,10666.0
35.72750,10333.0
35.74250,9606.0
35.75750,8975.0
35.77250,8490.0
35.78750,7802.0
35.80250,7283.0
35.81750,6952.0
35.83250,6506.0
35.84750,6181.0
35.86250,5911.0
35.87750,5643.0
35.89250,5560.0
35.90750,5528.0
35.92250,5264.0
35.93750,5282.0
35.95250,5367.0
35.96750,5256.0
35.98250,5383.0
35.99750,5326.0
36.01250,5233.0
36.02750,5216.0
36.04250,5292.0
36.05750,5495.0
36.07250,5216.0
36.08750,5415.0
36.10250,5237.0
36.11750,5453.0
36.13250,5251.0
36.14750,5183.0
36.16250,5101.0
36.17750,5195.0
36.19250,5217.0
36.20750,5257.0
36.22250,5015.0
36.23750,4950.0
36.25250,5110.0
36.26750,4715.0
36.28250,4748.0
36.29750,4665.0
36.31250,4771.0
36.32750,4501.0
36.34250,4419.0
36.35750,4499.0
36.37250,4296.0
36.38750,4360.0
36.40250,4335.0
36.41750,4363.0
36.43250,4346.0
36.44750,4359.0
36.46250,4183.0
36.47750,4230.0
36.49250,4118.0
36.50750,4130.0
36.52250,4330.0
36.53750,4258.0
36.55250,4189.0
36.56750,4179.0
36.58250,4276.0
36.59750,4257.0
36.61250,4149.0
36.62750,4313.0
36.64250,4256.0
36.65750,4267.0
36.67250,4316.0
36.68750,4355.0
36.70250,4241.0
36.71750,4362.0
36.73250,4286.0
36.74750,4338.0
36.76250,4282.0
36.77750,4302.0
36.79250,4281.0
36.80750,4411.0
36.82250,4321.0
36.83750,4270.0
36.85250,4160.0
36.86750,4190.0
36.88250,4267.0
36.89750,4447.0
36.91250,4343.0
36.92750,4264.0
36.94250,4220.0
36.95750,4292.0
36.97250,4030.0
36.98750,4231.0
37.00250,4134.0
37.01750,4166.0
37.03250,4002.0
37.04750,4051.0
37.06250,4231.0
37.07750,4123.0
37.09250,3968.0
37.10750,4116.0
37.12250,4123.0
37.13750,3957.0
37.15250,3880.0
37.16750,3933.0
37.18250,3861.0
37.19750,4012.0
37.21250,3860.0
37.22750,3877.0
37.24250,3816.0
37.25750,3913.0
37.27250,3830.0
37.28750,3895.0
37.30250,3760.0
37.31750,3859.0
37.33250,3834.0
37.34750,3887.0
37.36250,3740.0
37.37750,3714.0
37.39250,3652.0
37.40750,3748.0
37.42250,3679.0
37.43750,3670.0
37.45250,3619.0
37.46750,3703.0
37.48250,3751.0
37.49750,3637.0
37.51250,3708.0
37.52750,3680.0
37.54250,3745.0
37.55750,3600.0
37.57250,3619.0
37.58750,3598.0
37.60250,3769.0
37.61750,3689.0
37.63250,3839.0
37.64750,3663.0
37.66250,3672.0
37.67750,3599.0
37.69250,3718.0
37.70750,3771.0
37.72250,3744.0
37.73750,3741.0
37.75250,3799.0
37.76750,3797.0
37.78250,3724.0
37.79750,3674.0
37.81250,3716.0
37.82750,3735.0
37.84250,3740.0
37.85750,3660.0
37.87250,3710.0
37.88750,3689.0
37.90250,3734.0
37.91750,3739.0
37.93250,3615.0
37.94750,3799.0
37.96250,3681.0
37.97750,3643.0
37.99250,3731.0
38.00750,3759.0
38.02250,3700.0
38.03750,3703.0
38.05250,3722.0
38.06750,3774.0
38.08250,3689.0
38.09750,3900.0
38.11250,3881.0
38.12750,3916.0
38.14250,4066.0
38.15750,4229.0
38.17250,4076.0
38.18750,4295.0
38.20250,4263.0
38.21750,4444.0
38.23250,4454.0
38.24750,4818.0
38.26250,4861.0
38.27750,4935.0
38.29250,5333.0
38.30750,5547.0
38.32250,5747.0
38.33750,6058.0
38.35250,6484.0
38.36750,6968.0
38.38250,7319.0
38.39750,8230.0
38.41250,9130.0
38.42750,10728.0
38.44250,12801.0
38.45750,14801.0
38.47250,18092.0
38.48750,20388.0
38.50250,23387.0
38.51750,26302.0
38.53250,29805.0
38.54750,33372.0
38.56250,37804.0
38.57750,42594.0
38.59250,46078.0
38.60750,49925.0
38.62250,53448.0
38.63750,55892.0
38.65250,58125.0
38.66750,59771.0
38.68250,60828.0
38.69750,61870.0
38.71250,63061.0
38.72750,62945.0
38.74250,62060.0
38.75750,61104.0
38.77250,59847.0
38.78750,57767.0
38.80250,55568.0
38.81750,53575.0
38.83250,50779.0
38.84750,48155.0
38.86250,45541.0
38.87750,42272.0
38.89250,39117.0
38.90750,35096.0
38.92250,31492.0
38.93750,28124.0
38.95250,25316.0
38.96750,22807.0
38.98250,20328.0
38.99750,18169.0
39.01250,16407.0
39.02750,14420.0
39.04250,12880.0
39.05750,11306.0
39.07250,9791.0
39.08750,8677.0
39.10250,8069.0
39.11750,7565.0
39.13250,7103.0
39.14750,6729.0
39.16250,6472.0
39.17750,6538.0
39.19250,6385.0
39.20750,6308.0
39.22250,6269.0
39.23750,6200.0
39.25250,5987.0
39.26750,6212.0
39.28250,6275.0
39.29750,6251.0
39.31250,6227.0
39.32750,6210.0
39.34250,6194.0
39.35750,6272.0
39.37250,6298.0
39.38750,6184.0
39.40250,6369.0
39.41750,6562.0
39.43250,6447.0
39.44750,6422.0
39.46250,6477.0
39.47750,6560.0
39.49250,6690.0
39.50750,6571.0
39.52250,6739.0
39.53750,6703.0
39.55250,6514.0
39.56750,6567.0
39.58250,6635.0
39.59750,6835.0
39.61250,6778.0
39.62750,6789.0
39.64250,6825.0
39.65750,6826.0
39.67250,6649.0
39.68750,6688.0
39.70250,6918.0
39.71750,6748.0
39.73250,6790.0
39.74750,6956.0
39.76250,6798.0
39.77750,6810.0
39.79250,6854.0
39.80750,6980.0
39.82250,6828.0
39.83750,6920.0
39.85250,6880.0
39.86750,7079.0
39.88250,7212.0
39.89750,7245.0
39.91250,7156.0
39.92750,7267.0
39.94250,7520.0
39.95750,7515.0
39.97250,7477.0
39.98750,7465.0
40.00250,7773.0
40.01750,7910.0
40.03250,7804.0
40.04750,8042.0
40.06250,8285.0
40.07750,8525.0
40.09250,8694.0
40.10750,8785.0
40.12250,9036.0
40.13750,9294.0
40.15250,9650.0
40.16750,9631.0
40.18250,10448.0
40.19750,10697.0
40.21250,11167.0
40.22750,11820.0
40.24250,12263.0
40.25750,13008.0
40.27250,13843.0
40.28750,14550.0
40.30250,15711.0
40.31750,16699.0
40.33250,17770.0
40.34750,18972.0
40.36250,20305.0
40.37750,22141.0
40.39250,24514.0
40.40750,26159.0
40.42250,28657.0
40.43750,31597.0
40.45250,34446.0
40.46750,37903.0
40.48250,41555.0
40.49750,45443.0
40.51250,50923.0
40.52750,55284.0
40.54250,61528.0
40.55750,66924.0
40.57250,73351.0
40.58750,80711.0
40.60250,87950.0
40.61750,96471.0
40.63250,103648.0
40.64750,111533.0
40.66250,119664.0
40.67750,126969.0
40.69250,135395.0
40.70750,143482.0
40.72250,150868.0
40.73750,160857.0
40.75250,168067.0
40.76750,173577.0
40.78250,179904.0
40.79750,186727.0
40.81250,191131.0
40.82750,195958.0
40.84250,200283.0
40.85750,204051.0
40.87250,206344.0
40.88750,208353.0
40.90250,205902.0
40.91750,205135.0
40.93250,204585.0
40.94750,203521.0
40.96250,200027.0
40.97750,196071.0
40.99250,190971.0
41.00750,185295.0
41.02250,180422.0
41.03750,175001.0
41.05250,168311.0
41.06750,161887.0
41.08250,155717.0
41.09750,150001.0
41.11250,142403.0
41.12750,135801.0
41.14250,128200.0
41.15750,121150.0
41.17250,114384.0
41.18750,107769.0
41.20250,103274.0
41.21750,96612.0
41.23250,92543.0
41.24750,89760.0
41.26250,86437.0
41.27750,84592.0
41.29250,82327.0
41.30750,80914.0
41.32250,80930.0
41.33750,80627.0
41.35250,81569.0
41.36750,83811.0
41.38250,86133.0
41.39750,89918.0
41.41250,93119.0
41.42750,96673.0
41.44250,100349.0
41.45750,105566.0
41.47250,109350.0
41.48750,114485.0
41.50250,117562.0
41.51750,123168.0
41.53250,127403.0
41.54750,132364.0
41.56250,135331.0
41.57750,139388.0
41.59250,142400.0
41.60750,147339.0
41.62250,148917.0
41.63750,152080.0
41.65250,154845.0
41.66750,155229.0
41.68250,157774.0
41.69750,159892.0
41.71250,160888.0
41.72750,163405.0
41.74250,164067.0
41.75750,163223.0
41.77250,163433.0
41.78750,163881.0
41.80250,164371.0
41.81750,162451.0
41.83250,161977.0
41.84750,162624.0
41.86250,161817.0
41.87750,163037.0
41.89250,162065.0
41.90750,161475.0
41.92250,161522.0
41.93750,161705.0
41.95250,162246.0
41.96750,160917.0
41.98250,162116.0
41.99750,162104.0
42.01250,163149.0
42.02750,162409.0
42.04250,161452.0
42.05750,161446.0
42.07250,163443.0
42.08750,163922.0
42.10250,163376.0
42.11750,162644.0
42.13250,162369.0
42.14750,161572.0
42.16250,163900.0
42.17750,164529.0
42.19250,164353.0
42.20750,165431.0
42.22250,165315.0
42.23750,165571.0
42.25250,166233.0
42.26750,167911.0
42.28250,170152.0
42.29750,172838.0
42.31250,174922.0
42.32750,175532.0
42.34250,178041.0
42.35750,180646.0
42.37250,183647.0
42.38750,185506.0
42.40250,188567.0
42.41750,191356.0
42.43250,196045.0
42.44750,198592.0
42.46250,204644.0
42.47750,209520.0
42.49250,219095.0
42.50750,228093.0
42.52250,240357.0
42.53750,254206.0
42.55250,273134.0
42.56750,296812.0
42.58250,326874.0
42.59750,367743.0
42.61250,423490.0
42.62750,500655.0
42.64250,606268.0
42.65750,761716.0
42.67250,935586.0
42.68750,1168515.0
42.70250,1473360.0
42.71750,1900106.0
42.73250,2499092.0
42.74750,3231177.0
42.76250,4068255.0
42.77750,4934624.0
42.79250,5887998.0
42.80750,6796731.0
42.82250,7875924.0
42.83750,9032721.0
42.85250,10272803.0
42.86750,11917687.0
42.88250,13750643.0
42.89750,15448222.0
42.91250,17121826.0
42.92750,18434064.0
42.94250,19615276.0
42.95750,20893206.0
42.97250,22223264.0
42.98750,23445942.0
43.00250,24637800.0
43.01750,25503588.0
43.03250,26293252.0
43.04750,26537670.0
43.06250,26678000.0
43.07750,26438786.0
43.09250,25639186.0
43.10750,25110044.0
43.12250,24186028.0
43.13750,23433164.0
43.15250,22466892.0
43.16750,21534996.0
43.18250,20485912.0
43.19750,19251736.0
43.21250,17885430.0
43.22750,16584687.0
43.24250,15161259.0
43.25750,13740752.0
43.27250,12368946.0
43.28750,11239148.0
43.30250,10140163.0
43.31750,9051355.0
43.33250,7944374.0
43.34750,6847438.0
43.36250,5843030.0
43.37750,4917877.0
43.39250,4117757.0
43.40750,3471426.0
43.42250,2857426.0
43.43750,2364399.0
43.45250,1928462.0
43.46750,1546886.0
43.48250,1215568.0
43.49750,941794.0
43.51250,739403.0
43.52750,597267.0
43.54250,486235.0
43.55750,406137.0
43.57250,349978.0
43.58750,309730.0
43.60250,281320.0
43.61750,261836.0
43.63250,247699.0
43.64750,236890.0
43.66250,224283.0
43.67750,218677.0
43.69250,211563.0
43.70750,203600.0
43.72250,199276.0
43.73750,193383.0
43.75250,189816.0
43.76750,185465.0
43.78250,180045.0
43.79750,175543.0
43.81250,172285.0
43.82750,170425.0
43.84250,166294.0
43.85750,164308.0
43.87250,162544.0
43.88750,158778.0
43.90250,155722.0
43.91750,154000.0
43.93250,151841.0
43.94750,148034.0
43.96250,145634.0
43.97750,143226.0
43.99250,139638.0
44.00750,138369.0
44.02250,136055.0
44.03750,133469.0
44.05250,132329.0
44.06750,132853.0
44.08250,131752.0
44.09750,129649.0
44.11250,128483.0
44.12750,127351.0
44.14250,124671.0
44.15750,123906.0
44.17250,123549.0
44.18750,120596.0
44.20250,120169.0
44.21750,118779.0
44.23250,117699.0
44.24750,116598.0
44.26250,114266.0
44.27750,114589.0
44.29250,113973.0
44.30750,112973.0
44.32250,111504.0
44.33750,109076.0
44.35250,108462.0
44.36750,107580.0
44.38250,107344.0
44.39750,106457.0
44.41250,105382.0
44.42750,104304.0
44.44250,103495.0
44.45750,103227.0
44.47250,102475.0
44.48750,101498.0
44.50250,101595.0
44.51750,100552.0
44.53250,99935.0
44.54750,98907.0
44.56250,97271.0
44.57750,97480.0
44.59250,96521.0
44.60750,95986.0
44.62250,94587.0
44.63750,93603.0
44.65250,94094.0
44.66750,94021.0
44.68250,92909.0
44.69750,93144.0
44.71250,92117.0
44.72750,92238.0
44.74250,92283.0
44.75750,91742.0
44.77250,91307.0
44.78750,90878.0
44.80250,90998.0
44.81750,90575.0
44.83250,90054.0
44.84750,89723.0
44.86250,89520.0
44.87750,89421.0
44.89250,88678.0
44.90750,88498.0
44.92250,87866.0
44.93750,86709.0
44.95250,86383.0
44.96750,85060.0
44.98250,84709.0
44.99750,83002.0
45.01250,83010.0
45.02750,82332.0
45.04250,81752.0
45.05750,81845.0
45.07250,81510.0
45.08750,81149.0
45.10250,80464.0
45.11750,80444.0
45.13250,80180.0
45.14750,79484.0
45.16250,79769.0
45.17750,78839.0
45.19250,78308.0
45.20750,78439.0
45.22250,78305.0
45.23750,77783.0
45.25250,76908.0
45.26750,77249.0
45.28250,76332.0
45.29750,75343.0
45.31250,75430.0
45.32750,75737.0
45.34250,74320.0
45.35750,74601.0
45.37250,75074.0
45.38750,74285.0
45.40250,74208.0
45.41750,72855.0
45.43250,72675.0
45.44750,72167.0
45.46250,71167.0
45.47750,71100.0
45.49250,70134.0
45.50750,70721.0
45.52250,70221.0
45.53750,68997.0
45.55250,69169.0
45.56750,69198.0
45.58250,69870.0
45.59750,68963.0
45.61250,69394.0
45.62750,69465.0
45.64250,67876.0
45.65750,67751.0
45.67250,68329.0
45.68750,66856.0
45.70250,67519.0
45.71750,66947.0
45.73250,66756.0
45.74750,65764.0
45.76250,64405.0
45.77750,64285.0
45.79250,63229.0
45.80750,63583.0
45.82250,63959.0
45.83750,64305.0
45.85250,63703.0
45.86750,63521.0
45.88250,63732.0
45.89750,63368.0
45.91250,63665.0
45.92750,63135.0
45.94250,62254.0
45.95750,62891.0
45.97250,62682.0
45.98750,61534.0
46.00250,61811.0
46.01750,62745.0
46.03250,61552.0
46.04750,60127.0
46.06250,60127.0
46.07750,59975.0
46.09250,59293.0
46.10750,58997.0
46.12250,58836.0
46.13750,58578.0
46.15250,58363.0
46.16750,58089.0
46.18250,58656.0
46.19750,59459.0
46.21250,58677.0
46.22750,58090.0
46.24250,57952.0
46.25750,58512.0
46.27250,58451.0
46.28750,58657.0
46.30250,57690.0
46.31750,57832.0
46.33250,58488.0
46.34750,58995.0
46.36250,58191.0
46.37750,58289.0
46.39250,59479.0
46.40750,59825.0
46.42250,60172.0
46.43750,59760.0
46.45250,60469.0
46.46750,59118.0
46.48250,58533.0
46.49750,58288.0
46.51250,58298.0
46.52750,57944.0
46.54250,57661.0
46.55750,56957.0
46.57250,57034.0
46.58750,57668.0
46.60250,57533.0
46.61750,56790.0
46.63250,56509.0
46.64750,56040.0
46.66250,55794.0
46.67750,55733.0
46.69250,56307.0
46.70750,56138.0
46.72250,56710.0
46.73750,55895.0
46.75250,55460.0
46.76750,55936.0
46.78250,56394.0
46.79750,54956.0
46.81250,55832.0
46.82750,55861.0
46.84250,54914.0
46.85750,54980.0
46.87250,55399.0
46.88750,56735.0
46.90250,56257.0
46.91750,57039.0
46.93250,57576.0
46.94750,57347.0
46.96250,58113.0
46.97750,58467.0
46.99250,57995.0
47.00750,58193.0
47.02250,57791.0
47.03750,57052.0
47.05250,57903.0
47.06750,59137.0
47.08250,57361.0
47.09750,57687.0
47.11250,57930.0
47.12750,57359.0
47.14250,56142.0
47.15750,56189.0
47.17250,55800.0
47.18750,55283.0
47.20250,53782.0
47.21750,53897.0
47.23250,53059.0
47.24750,52266.0
47.26250,52288.0
47.27750,51650.0
47.29250,51492.0
47.30750,50311.0
47.32250,49299.0
47.33750,49027.0
47.35250,48506.0
47.36750,48633.0
47.38250,47658.0
47.39750,47834.0
47.41250,46572.0
47.42750,46563.0
47.44250,46165.0
47.45750,45321.0
47.47250,45689.0
47.48750,45331.0
47.50250,44799.0
47.51750,44101.0
47.53250,43583.0
47.54750,42860.0
47.56250,43100.0
47.57750,43124.0
47.59250,43283.0
47.60750,42193.0
47.62250,43059.0
47.63750,42212.0
47.65250,42372.0
47.66750,42641.0
47.68250,41664.0
47.69750,41916.0
47.71250,41369.0
47.72750,41169.0
47.74250,40311.0
47.75750,40504.0
47.77250,41168.0
47.78750,41080.0
47.80250,40426.0
47.81750,40302.0
47.83250,39816.0
47.84750,40556.0
47.86250,40644.0
47.87750,40719.0
47.89250,40617.0
47.90750,39882.0
47.92250,39345.0
47.93750,39053.0
47.95250,39133.0
47.96750,39342.0
47.98250,38531.0
47.99750,38925.0
48.01250,38084.0
48.02750,38622.0
48.04250,38068.0
48.05750,38013.0
48.07250,37088.0
48.08750,37780.0
48.10250,37105.0
48.11750,37111.0
48.13250,36924.0
48.14750,36698.0
48.16250,36352.0
48.17750,36137.0
48.19250,36363.0
48.20750,36525.0
48.22250,36076.0
48.23750,35172.0
48.25250,35467.0
48.26750,34872.0
48.28250,35104.0
48.29750,35210.0
48.31250,34834.0
48.32750,34590.0
48.34250,35019.0
48.35750,34884.0
48.37250,33688.0
48.38750,33727.0
48.40250,34283.0
48.41750,34182.0
48.43250,34241.0
48.44750,34132.0
48.46250,34106.0
48.47750,34168.0
48.49250,34162.0
48.50750,34619.0
48.52250,34454.0
48.53750,34871.0
48.55250,33765.0
48.56750,33451.0
48.58250,33051.0
48.59750,32740.0
48.61250,32842.0
48.62750,32857.0
48.64250,32544.0
48.65750,32213.0
48.67250,33041.0
48.68750,32351.0
48.70250,32524.0
48.71750,32187.0
48.73250,32092.0
48.74750,31688.0
48.76250,31134.0
48.77750,31207.0
48.79250,31111.0
48.80750,31178.0
48.82250,30545.0
48.83750,30106.0
48.85250,30665.0
48.86750,30785.0
48.88250,30813.0
48.89750,31184.0
48.91250,31061.0
48.92750,31287.0
48.94250,30388.0
48.95750,30330.0
48.97250,30323.0
48.98750,30787.0
49.00250,30559.0
49.01750,30294.0
49.03250,30179.0
49.04750,30415.0
49.06250,30143.0
49.07750,29456.0
49.09250,30081.0
49.10750,30093.0
49.12250,30113.0
49.13750,29893.0
49.15250,30062.0
49.16750,30113.0
49.18250,30208.0
49.19750,29937.0
49.21250,29487.0
49.22750,29907.0
49.24250,29679.0
49.25750,28835.0
49.27250,28862.0
49.28750,28760.0
49.30250,28887.0
49.31750,28665.0
49.33250,28556.0
49.34750,28879.0
49.36250,28284.0
49.37750,29258.0
49.39250,28206.0
49.40750,28425.0
49.42250,28478.0
49.43750,28063.0
49.45250,28410.0
49.46750,27822.0
49.48250,28260.0
49.49750,27844.0
49.51250,27842.0
49.52750,28138.0
49.54250,28218.0
49.55750,28033.0
49.57250,28048.0
49.58750,27473.0
49.60250,27859.0
49.61750,27558.0
49.63250,27637.0
49.64750,27791.0
49.66250,27722.0
49.67750,26934.0
49.69250,27177.0
49.70750,26879.0
49.72250,26994.0
49.73750,26652.0
49.75250,26411.0
49.76750,25680.0
49.78250,26178.0
49.79750,26471.0
49.81250,26039.0
49.82750,25797.0
49.84250,26072.0
49.85750,26001.0
49.87250,25932.0
49.88750,25957.0
49.90250,25600.0
49.91750,25528.0
49.93250,25491.0
49.94750,25252.0
49.96250,25287.0
49.97750,25046.0
49.99250,25166.0
50.00750,25073.0
50.02250,25000.0
50.03750,25138.0
50.05250,24450.0
50.06750,24741.0
50.08250,24427.0
50.09750,24301.0
50.11250,24368.0
50.12750,24438.0
50.14250,24455.0
50.15750,24494.0
50.17250,24338.0
50.18750,23814.0
50.20250,24230.0
50.21750,23788.0
50.23250,23828.0
50.24750,24088.0
50.26250,23744.0
50.27750,23604.0
50.29250,24175.0
50.30750,23864.0
50.32250,23556.0
50.33750,23727.0
50.35250,23781.0
50.36750,23603.0
50.38250,23827.0
50.39750,23186.0
50.41250,23518.0
50.42750,23069.0
50.44250,23191.0
50.45750,22962.0
50.47250,22996.0
50.48750,23283.0
50.50250,23035.0
50.51750,23076.0
50.53250,23085.0
50.54750,22770.0
50.56250,22993.0
50.57750,22930.0
50.59250,22729.0
50.60750,22588.0
50.62250,21694.0
50.63750,21686.0
50.65250,21935.0
50.66750,21115.0
50.68250,21385.0
50.69750,21411.0
50.71250,20752.0
50.72750,20777.0
50.74250,21283.0
50.75750,20937.0
50.77250,21293.0
50.78750,21434.0
50.80250,21099.0
50.81750,20645.0
50.83250,20603.0
50.84750,20292.0
50.86250,20535.0
50.87750,20731.0
50.89250,20748.0
50.90750,20354.0
50.92250,20287.0
50.93750,20802.0
50.95250,20595.0
50.96750,20447.0
50.98250,19883.0
50.99750,19712.0
51.01250,19459.0
51.02750,19396.0
51.04250,19918.0
51.05750,19787.0
51.07250,20192.0
51.08750,19684.0
51.10250,19847.0
51.11750,19087.0
51.13250,19533.0
51.14750,19325.0
51.16250,19011.0
51.17750,18865.0
51.19250,19064.0
51.20750,19013.0
51.22250,18621.0
51.23750,18794.0
51.25250,19137.0
51.26750,18933.0
51.28250,18602.0
51.29750,18554.0
51.31250,18367.0
51.32750,18571.0
51.34250,18266.0
51.35750,18288.0
51.37250,18498.0
51.38750,18553.0
51.40250,18322.0
51.41750,18624.0
51.43250,18589.0
51.44750,18148.0
51.46250,18260.0
51.47750,18250.0
51.49250,17687.0
51.50750,17970.0
51.52250,18110.0
51.53750,17718.0
51.55250,17480.0
51.56750,18070.0
51.58250,17382.0
51.59750,17613.0
51.61250,17587.0
51.62750,17751.0
51.64250,17084.0
51.65750,16432.0
51.67250,17002.0
51.68750,17002.0
51.70250,16790.0
51.71750,16644.0
51.73250,16726.0
51.74750,16692.0
51.76250,16532.0
51.77750,16227.0
51.79250,16357.0
51.80750,16111.0
51.82250,15778.0
51.83750,16012.0
51.85250,16531.0
51.86750,16272.0
51.88250,16172.0
51.89750,15870.0
51.91250,16351.0
51.92750,16549.0
51.94250,16359.0
51.95750,16369.0
51.97250,16426.0
51.98750,16251.0
52.00250,16312.0
52.01750,15989.0
52.03250,16027.0
52.04750,15933.0
52.06250,15951.0
52.07750,15931.0
52.09250,15577.0
52.10750,15779.0
52.12250,15871.0
52.13750,15418.0
52.15250,15066.0
52.16750,15058.0
52.18250,14989.0
52.19750,14589.0
52.21250,14722.0
52.22750,15146.0
52.24250,14952.0
52.25750,15425.0
52.27250,15301.0
52.28750,15441.0
52.30250,15198.0
52.31750,15147.0
52.33250,14754.0
52.34750,14885.0
52.36250,15002.0
52.37750,15177.0
52.39250,14732.0
52.40750,15053.0
52.42250,15177.0
52.43750,15116.0
52.45250,14958.0
52.46750,14728.0
52.48250,14892.0
52.49750,14754.0
52.51250,14568.0
52.52750,14655.0
52.54250,14175.0
52.55750,13966.0
52.57250,14321.0
52.58750,14223.0
52.60250,14104.0
52.61750,13953.0
52.63250,13879.0
52.64750,13996.0
52.66250,13868.0
52.67750,14134.0
52.69250,14171.0
52.70750,13784.0
52.72250,13845.0
52.73750,13657.0
52.75250,13546.0
52.76750,13483.0
52.78250,13124.0
52.79750,12906.0
52.81250,12989.0
52.82750,13317.0
52.84250,13217.0
52.85750,12963.0
52.87250,13096.0
52.88750,13065.0
52.90250,13115.0
52.91750,12840.0
52.93250,12867.0
52.94750,13188.0
52.96250,13302.0
52.97750,12680.0
52.99250,12738.0
53.00750,12513.0
53.02250,12717.0
53.03750,12749.0
53.05250,12474.0
53.06750,12655.0
53.08250,12382.0
53.09750,12453.0
53.11250,12495.0
53.12750,12208.0
53.14250,11957.0
53.15750,12244.0
53.17250,12217.0
53.18750,12351.0
53.20250,12095.0
53.21750,11981.0
53.23250,12454.0
53.24750,11951.0
53.26250,11913.0
53.27750,11924.0
53.29250,11869.0
53.30750,11858.0
53.32250,11824.0
53.33750,11893.0
53.35250,11913.0
53.36750,11610.0
53.38250,11635.0
53.39750,11643.0
53.41250,11698.0
53.42750,11450.0
53.44250,11362.0
53.45750,11143.0
53.47250,11244.0
53.48750,11413.0
53.50250,11118.0
53.51750,11433.0
53.53250,11607.0
53.54750,11642.0
53.56250,11348.0
53.57750,11385.0
53.59250,11448.0
53.60750,11530.0
53.62250,11161.0
53.63750,11280.0
53.65250,11156.0
53.66750,11286.0
53.68250,11003.0
53.69750,11087.0
53.71250,11306.0
53.72750,11227.0
53.74250,11227.0
53.75750,11503.0
53.77250,11407.0
53.78750,11473.0
53.80250,11492.0
53.81750,11586.0
53.83250,11578.0
53.84750,11652.0
53.86250,11858.0
53.87750,11797.0
53.89250,11958.0
53.90750,12268.0
53.92250,12389.0
53.93750,11988.0
53.95250,12479.0
53.96750,12513.0
53.98250,12359.0
53.99750,12254.0
54.01250,12597.0
54.02750,12401.0
54.04250,12746.0
54.05750,12670.0
54.07250,12762.0
54.08750,12608.0
54.10250,12750.0
54.11750,12455.0
54.13250,11960.0
54.14750,12202.0
54.16250,12170.0
54.17750,12119.0
54.19250,11845.0
54.20750,11795.0
54.22250,11442.0
54.23750,11774.0
54.25250,11711.0
54.26750,11284.0
54.28250,11029.0
54.29750,10931.0
54.31250,10443.0
54.32750,10659.0
54.34250,10722.0
54.35750,10676.0
54.37250,10241.0
54.38750,10402.0
54.40250,9867.0
54.41750,9815.0
54.43250,9868.0
54.44750,9612.0
54.46250,9443.0
54.47750,9771.0
54.49250,9623.0
54.50750,9622.0
54.52250,9093.0
54.53750,9426.0
54.55250,9636.0
54.56750,9114.0
54.58250,9351.0
54.59750,8943.0
54.61250,9135.0
54.62750,9316.0
54.64250,9365.0
54.65750,9263.0
54.67250,9245.0
54.68750,9142.0
54.70250,9287.0
54.71750,9078.0
54.73250,9051.0
54.74750,9461.0
54.76250,9488.0
54.77750,9098.0
54.79250,9109.0
54.80750,9205.0
54.82250,9181.0
54.83750,9248.0
54.85250,8970.0
54.86750,9148.0
54.88250,9142.0
54.89750,9239.0
54.91250,9127.0
54.92750,9189.0
54.94250,9174.0
54.95750,9057.0
54.97250,8687.0
54.98750,8806.0
55.00250,8807.0
55.01750,8577.0
55.03250,8205.0
55.04750,8728.0
55.06250,8346.0
55.07750,8548.0
55.09250,8760.0
55.10750,8292.0
55.12250,8434.0
55.13750,8564.0
55.15250,8250.0
55.16750,8062.0
55.18250,8254.0
55.19750,8500.0
55.21250,8131.0
55.22750,7875.0
55.24250,7859.0
55.25750,7721.0
55.27250,7807.0
55.28750,7744.0
55.30250,7779.0
55.31750,7819.0
55.33250,7738.0
55.34750,7678.0
55.36250,7705.0
55.37750,7674.0
55.39250,7463.0
55.40750,7562.0
55.42250,7620.0
55.43750,7404.0
55.45250,7650.0
55.46750,7629.0
55.48250,7524.0
55.49750,7590.0
55.51250,7413.0
55.52750,7631.0
55.54250,7415.0
55.55750,7525.0
55.57250,7628.0
55.58750,7647.0
55.60250,7312.0
55.61750,7546.0
55.63250,7499.0
55.64750,7277.0
55.66250,7192.0
55.67750,7299.0
55.69250,7212.0
55.70750,7042.0
55.72250,7093.0
55.73750,7284.0
55.75250,7268.0
55.76750,7226.0
55.78250,7338.0
55.79750,7286.0
55.81250,7357.0
55.82750,7111.0
55.84250,7094.0
55.85750,7294.0
55.87250,7159.0
55.88750,7138.0
55.90250,6992.0
55.91750,7041.0
55.93250,6871.0
55.94750,7071.0
55.96250,7012.0
55.97750,6875.0
55.99250,6635.0
56.00750,6771.0
56.02250,6932.0
56.03750,6802.0
56.05250,6524.0
56.06750,6384.0
56.08250,6561.0
56.09750,6657.0
56.11250,6528.0
56.12750,6469.0
56.14250,6517.0
56.15750,6527.0
56.17250,6456.0
56.18750,6469.0
56.20250,6723.0
56.21750,6506.0
56.23250,6517.0
56.24750,6545.0
56.26250,6607.0
56.27750,6582.0
56.29250,6192.0
56.30750,6191.0
56.32250,6291.0
56.33750,6502.0
56.35250,6388.0
56.36750,6517.0
56.38250,6308.0
56.39750,6391.0
56.41250,6290.0
56.42750,6230.0
56.44250,6194.0
56.45750,6127.0
56.47250,5971.0
56.48750,5915.0
56.50250,5996.0
56.51750,6149.0
56.53250,6228.0
56.54750,6029.0
56.56250,6120.0
56.57750,6039.0
56.59250,6017.0
56.60750,6065.0
56.62250,5786.0
56.63750,6039.0
56.65250,5679.0
56.66750,5677.0
56.68250,5501.0
56.69750,5598.0
56.71250,5663.0
56.72750,5884.0
56.74250,5818.0
56.75750,5776.0
56.77250,5743.0
56.78750,5568.0
56.80250,5731.0
56.81750,5430.0
56.83250,5518.0
56.84750,5621.0
56.86250,5631.0
56.87750,5649.0
56.89250,5694.0
56.90750,5764.0
56.92250,5564.0
56.93750,5470.0
56.95250,5429.0
56.96750,5307.0
56.98250,5569.0
56.99750,5417.0
57.01250,5404.0
57.02750,5405.0
57.04250,5288.0
57.05750,5588.0
57.07250,5598.0
57.08750,5450.0
57.10250,5555.0
57.11750,5423.0
57.13250,5376.0
57.14750,5469.0
57.16250,5360.0
57.17750,5259.0
57.19250,5356.0
57.20750,5479.0
57.22250,5217.0
57.23750,5236.0
57.25250,5130.0
57.26750,5402.0
57.28250,5102.0
57.29750,5242.0
57.31250,5223.0
57.32750,5215.0
57.34250,5278.0
57.35750,5043.0
57.37250,5197.0
57.38750,5028.0
57.40250,5061.0
57.41750,4974.0
57.43250,4981.0
57.44750,5001.0
57.46250,5229.0
57.47750,5024.0
57.49250,5094.0
57.50750,5110.0
57.52250,5048.0
57.53750,4964.0
57.55250,4959.0
57.56750,4922.0
57.58250,4959.0
57.59750,4922.0
57.61250,4967.0
57.62750,4933.0
57.64250,5012.0
57.65750,5012.0
57.67250,4810.0
57.68750,4938.0
57.70250,4785.0
57.71750,4737.0
57.73250,4708.0
57.74750,4804.0
57.76250,4855.0
57.77750,4614.0
57.79250,4764.0
57.80750,4905.0
57.82250,4750.0
57.83750,4751.0
57.85250,4873.0
57.86750,4790.0
57.88250,4876.0
57.89750,4646.0
57.91250,4823.0
57.92750,4624.0
57.94250,4643.0
57.95750,4734.0
57.97250,4560.0
57.98750,4772.0
58.00250,4714.0
58.01750,4638.0
58.03250,4763.0
58.04750,4563.0
58.06250,4538.0
58.07750,4607.0
58.09250,4551.0
58.10750,4573.0
58.12250,4728.0
58.13750,4529.0
58.15250,4374.0
58.16750,4402.0
58.18250,4282.0
58.19750,4397.0
58.21250,4363.0
58.22750,4405.0
58.24250,4551.0
58.25750,4475.0
58.27250,4353.0
58.28750,4313.0
58.30250,4342.0
58.31750,4456.0
58.33250,4302.0
58.34750,4381.0
58.36250,4545.0
58.37750,4385.0
58.39250,4416.0
58.40750,4298.0
58.42250,4201.0
58.43750,4449.0
58.45250,4399.0
58.46750,4399.0
58.48250,4413.0
58.49750,4317.0
58.51250,4435.0
58.52750,4411.0
58.54250,4365.0
58.55750,4306.0
58.57250,4391.0
58.58750,4542.0
58.60250,4358.0
58.61750,4342.0
58.63250,4485.0
58.64750,4261.0
58.66250,4456.0
58.67750,4448.0
58.69250,4338.0
58.70750,4188.0
58.72250,4150.0
58.73750,4143.0
58.75250,4170.0
58.76750,4065.0
58.78250,4188.0
58.79750,4197.0
58.81250,4088.0
58.82750,4078.0
58.84250,4193.0
58.85750,4136.0
58.87250,3894.0
58.88750,3929.0
58.90250,4080.0
58.91750,4034.0
58.93250,4029.0
58.94750,3955.0
58.96250,3949.0
58.97750,3939.0
58.99250,3903.0
59.00750,3783.0
59.02250,3916.0
59.03750,4055.0
59.05250,4006.0
59.06750,3884.0
59.08250,3792.0
59.09750,3859.0
59.11250,3872.0
59.12750,3821.0
59.14250,3784.0
59.15750,3854.0
59.17250,3539.0
59.18750,3729.0
59.20250,3746.0
59.21750,3755.0
59.23250,3764.0
59.24750,3751.0
59.26250,3579.0
59.27750,3804.0
59.29250,3683.0
59.30750,3610.0
59.32250,3603.0
59.33750,3594.0
59.35250,3606.0
59.36750,3700.0
59.38250,3673.0
59.39750,3532.0
59.41250,3727.0
59.42750,3524.0
59.44250,3598.0
59.45750,3639.0
59.47250,3569.0
59.48750,3617.0
59.50250,3543.0
59.51750,3570.0
59.53250,3702.0
59.54750,3691.0
59.56250,3641.0
59.57750,3582.0
59.59250,3705.0
59.60750,3612.0
59.62250,3762.0
59.63750,3659.0
59.65250,3637.0
59.66750,3717.0
59.68250,3781.0
59.69750,3876.0
59.71250,3707.0
59.72750,4131.0
59.74250,3835.0
59.75750,4202.0
59.77250,4298.0
59.78750,4388.0
59.80250,4355.0
59.81750,4493.0
59.83250,4456.0
59.84750,4646.0
59.86250,4858.0
59.87750,4897.0
59.89250,5265.0
59.90750,5559.0
59.92250,5506.0
59.93750,5695.0
59.95250,5648.0
59.96750,5731.0
59.98250,6186.0
59.99750,6160.0
60.01250,6513.0
60.02750,6510.0
60.04250,6372.0
60.05750,6436.0
60.07250,6189.0
60.08750,6149.0
60.10250,6035.0
60.11750,5828.0
60.13250,5901.0
60.14750,5834.0
60.16250,5701.0
60.17750,5560.0
60.19250,5478.0
60.20750,5206.0
60.22250,5017.0
60.23750,4822.0
60.25250,4684.0
60.26750,4691.0
60.28250,4535.0
60.29750,4341.0
60.31250,4125.0
60.32750,4183.0
60.34250,3876.0
60.35750,3925.0
60.37250,3819.0
60.38750,3597.0
60.40250,3543.0
60.41750,3546.0
60.43250,3464.0
60.44750,3424.0
60.46250,3271.0
60.47750,3346.0
60.49250,3431.0
60.50750,3466.0
60.52250,3152.0
60.53750,3323.0
60.55250,3398.0
60.56750,3328.0
60.58250,3413.0
60.59750,3445.0
60.61250,3481.0
60.62750,3578.0
60.64250,3483.0
60.65750,3468.0
60.67250,3516.0
60.68750,3488.0
60.70250,3464.0
60.71750,3592.0
60.73250,3604.0
60.74750,3332.0
60.76250,3392.0
60.77750,3415.0
60.79250,3533.0
60.80750,3414.0
60.82250,3468.0
60.83750,3316.0
60.85250,3411.0
60.86750,3280.0
60.88250,3312.0
60.89750,3245.0
60.91250,3291.0
60.92750,3219.0
60.94250,3204.0
60.95750,3314.0
60.97250,3187.0
60.98750,3283.0
61.00250,3252.0
61.01750,3246.0
61.03250,3283.0
61.04750,3235.0
61.06250,3307.0
61.07750,3214.0
61.09250,3300.0
61.10750,3247.0
61.12250,3228.0
61.13750,3117.0
61.15250,3106.0
61.16750,3103.0
61.18250,3135.0
61.19750,3136.0
61.21250,3065.0
61.22750,2903.0
61.24250,2942.0
61.25750,3099.0
61.27250,2907.0
61.28750,2960.0
61.30250,2894.0
61.31750,2955.0
61.33250,2893.0
61.34750,2820.0
61.36250,2798.0
61.37750,2735.0
61.39250,2752.0
61.40750,2793.0
61.42250,2887.0
61.43750,2895.0
61.45250,2835.0
61.46750,2788.0
61.48250,2708.0
61.49750,2806.0
61.51250,2729.0
61.52750,2766.0
61.54250,2677.0
61.55750,2728.0
61.57250,2652.0
61.58750,2671.0
61.60250,2681.0
61.61750,2642.0
61.63250,2702.0
61.64750,2687.0
61.66250,2780.0
61.67750,2693.0
61.69250,2790.0
61.70750,2727.0
61.72250,2463.0
61.73750,2615.0
61.75250,2592.0
61.76750,2568.0
61.78250,2589.0
61.79750,2634.0
61.81250,2691.0
61.82750,2564.0
61.84250,2689.0
61.85750,2606.0
61.87250,2606.0
61.88750,2680.0
61.90250,2722.0
61.91750,2591.0
61.93250,2579.0
61.94750,2577.0
61.96250,2588.0
61.97750,2601.0
61.99250,2529.0
62.00750,2546.0
62.02250,2562.0
62.03750,2566.0
62.05250,2537.0
62.06750,2577.0
62.08250,2578.0
62.09750,2567.0
62.11250,2488.0
62.12750,2533.0
62.14250,2513.0
62.15750,2579.0
62.17250,2420.0
62.18750,2580.0
62.20250,2516.0
62.21750,2395.0
62.23250,2386.0
62.24750,2459.0
62.26250,2577.0
62.27750,2598.0
62.29250,2535.0
62.30750,2465.0
62.32250,2500.0
62.33750,2414.0
62.35250,2451.0
62.36750,2381.0
62.38250,2419.0
62.39750,2419.0
62.41250,2596.0
62.42750,2451.0
62.44250,2475.0
62.45750,2410.0
62.47250,2454.0
62.48750,2430.0
62.50250,2418.0
62.51750,2505.0
62.53250,2541.0
62.54750,2383.0
62.56250,2447.0
62.57750,2369.0
62.59250,2385.0
62.60750,2393.0
62.62250,2540.0
62.63750,2389.0
62.65250,2494.0
62.66750,2477.0
62.68250,2472.0
62.69750,2500.0
62.71250,2463.0
62.72750,2454.0
62.74250,2545.0
62.75750,2641.0
62.77250,2642.0
62.78750,2777.0
62.80250,2739.0
62.81750,2914.0
62.83250,3077.0
62.84750,3202.0
62.86250,3398.0
62.87750,3583.0
62.89250,3647.0
62.90750,3767.0
62.92250,3895.0
62.93750,4089.0
62.95250,4028.0
62.96750,4165.0
62.98250,4282.0
62.99750,4249.0
63.01250,4278.0
63.02750,4306.0
63.04250,4245.0
63.05750,4183.0
63.07250,4003.0
63.08750,3916.0
63.10250,3869.0
63.11750,3779.0
63.13250,3636.0
63.14750,3536.0
63.16250,3403.0
63.17750,3291.0
63.19250,3216.0
63.20750,3122.0
63.22250,3017.0
63.23750,2815.0
63.25250,2728.0
63.26750,2689.0
63.28250,2493.0
63.29750,2441.0
63.31250,2399.0
63.32750,2345.0
63.34250,2339.0
63.35750,2223.0
63.37250,2280.0
63.38750,2261.0
63.40250,2224.0
63.41750,2180.0
63.43250,2113.0
63.44750,2115.0
63.46250,2208.0
63.47750,2202.0
63.49250,2119.0
63.50750,2117.0
63.52250,2206.0
63.53750,2175.0
63.55250,2207.0
63.56750,1975.0
63.58250,2167.0
63.59750,2111.0
63.61250,2090.0
63.62750,2158.0
63.64250,2146.0
63.65750,2179.0
63.67250,2058.0
63.68750,2103.0
63.70250,2194.0
63.71750,2006.0
63.73250,2033.0
63.74750,1964.0
63.76250,2022.0
63.77750,1997.0
63.79250,1990.0
63.80750,2070.0
63.82250,2120.0
63.83750,2055.0
63.85250,2096.0
63.86750,1970.0
63.88250,2012.0
63.89750,2164.0
63.91250,1977.0
63.92750,2097.0
63.94250,2094.0
63.95750,1947.0
63.97250,2008.0
63.98750,2040.0
64.00250,2051.0
64.01750,2047.0
64.03250,2009.0
64.04750,1990.0
64.06250,1933.0
64.07750,2054.0
64.09250,1983.0
64.10750,2049.0
64.12250,1960.0
64.13750,1927.0
64.15250,2025.0
64.16750,2023.0
64.18250,1897.0
64.19750,1919.0
64.21250,2008.0
64.22750,1905.0
64.24250,1893.0
64.25750,1956.0
64.27250,1924.0
64.28750,1922.0
64.30250,1883.0
64.31750,1896.0
64.33250,1932.0
64.34750,2040.0
64.36250,1944.0
64.37750,1914.0
64.39250,1888.0
64.40750,1917.0
64.42250,1897.0
64.43750,1803.0
64.45250,1986.0
64.46750,1866.0
64.48250,1890.0
64.49750,1892.0
64.51250,1909.0
64.52750,1865.0
64.54250,1900.0
64.55750,1842.0
64.57250,1875.0
64.58750,1894.0
64.60250,1840.0
64.61750,1910.0
64.63250,1824.0
64.64750,1923.0
64.66250,1891.0
64.67750,1761.0
64.69250,1961.0
64.70750,1798.0
64.72250,1856.0
64.73750,1815.0
64.75250,1868.0
64.76750,1845.0
64.78250,1848.0
64.79750,1927.0
64.81250,1776.0
64.82750,1873.0
64.84250,1916.0
64.85750,1756.0
64.87250,1957.0
64.88750,1862.0
64.90250,1822.0
64.91750,1748.0
64.93250,1818.0
64.94750,1854.0
64.96250,1814.0
64.97750,1866.0
64.99250,1861.0
65.00750,1917.0
65.02250,1837.0
65.03750,1900.0
65.05250,1865.0
65.06750,1862.0
65.08250,1809.0
65.09750,1822.0
65.11250,1806.0
65.12750,1786.0
65.14250,1819.0
65.15750,1876.0
65.17250,1875.0
65.18750,1756.0
65.20250,1850.0
65.21750,1906.0
65.23250,1860.0
65.24750,1857.0
65.26250,1843.0
65.27750,1735.0
65.29250,1725.0
65.30750,1968.0
65.32250,1773.0
65.33750,1713.0
65.35250,1739.0
65.36750,1829.0
65.38250,1738.0
65.39750,1728.0
65.41250,1710.0
65.42750,1750.0
65.44250,1793.0
65.45750,1648.0
65.47250,1703.0
65.48750,1583.0
65.50250,1702.0
65.51750,1702.0
65.53250,1752.0
65.54750,1727.0
65.56250,1632.0
65.57750,1633.0
65.59250,1757.0
65.60750,1746.0
65.62250,1752.0
65.63750,1680.0
65.65250,1679.0
65.66750,1724.0
65.68250,1587.0
65.69750,1719.0
65.71250,1714.0
65.72750,1637.0
65.74250,1663.0
65.75750,1685.0
65.77250,1687.0
65.78750,1718.0
65.80250,1651.0
65.81750,1610.0
65.83250,1675.0
65.84750,1631.0
65.86250,1720.0
65.87750,1680.0
65.89250,1617.0
65.90750,1772.0
65.92250,1610.0
65.93750,1628.0
65.95250,1683.0
65.96750,1677.0
65.98250,1681.0
65.99750,1695.0
66.01250,1710.0
66.02750,1643.0
66.04250,1654.0
66.05750,1669.0
66.07250,1684.0
66.08750,1651.0
66.10250,1606.0
66.11750,1645.0
66.13250,1611.0
66.14750,1691.0
66.16250,1623.0
66.17750,1614.0
66.19250,1640.0
66.20750,1646.0
66.22250,1557.0
66.23750,1601.0
66.25250,1582.0
66.26750,1614.0
66.28250,1556.0
66.29750,1566.0
66.31250,1518.0
66.32750,1590.0
66.34250,1571.0
66.35750,1526.0
66.37250,1585.0
66.38750,1562.0
66.40250,1597.0
66.41750,1580.0
66.43250,1549.0
66.44750,1475.0
66.46250,1539.0
66.47750,1651.0
66.49250,1577.0
66.50750,1536.0
66.52250,1486.0
66.53750,1544.0
66.55250,1584.0
66.56750,1491.0
66.58250,1458.0
66.59750,1516.0
66.61250,1512.0
66.62750,1508.0
66.64250,1490.0
66.65750,1535.0
66.67250,1614.0
66.68750,1493.0
66.70250,1543.0
66.71750,1523.0
66.73250,1557.0
66.74750,1509.0
66.76250,1502.0
66.77750,1489.0
66.79250,1502.0
66.80750,1438.0
66.82250,1501.0
66.83750,1503.0
66.85250,1452.0
66.86750,1540.0
66.88250,1577.0
66.89750,1448.0
66.91250,1486.0
66.92750,1555.0
66.94250,1543.0
66.95750,1551.0
66.97250,1478.0
66.98750,1515.0
67.00250,1528.0
67.01750,1580.0
67.03250,1528.0
67.04750,1451.0
67.06250,1477.0
67.07750,1508.0
67.09250,1428.0
67.10750,1457.0
67.12250,1435.0
67.13750,1437.0
67.15250,1490.0
67.16750,1463.0
67.18250,1447.0
67.19750,1386.0
67.21250,1405.0
67.22750,1437.0
67.24250,1445.0
67.25750,1415.0
67.27250,1464.0
67.28750,1448.0
67.30250,1474.0
67.31750,1452.0
67.33250,1388.0
67.34750,1394.0
67.36250,1448.0
67.37750,1396.0
67.39250,1504.0
67.40750,1448.0
67.42250,1479.0
67.43750,1429.0
67.45250,1444.0
67.46750,1391.0
67.48250,1384.0
67.49750,1454.0
67.51250,1376.0
67.52750,1290.0
67.54250,1357.0
67.55750,1411.0
67.57250,1337.0
67.58750,1350.0
67.60250,1389.0
67.61750,1347.0
67.63250,1357.0
67.64750,1414.0
67.66250,1398.0
67.67750,1460.0
67.69250,1404.0
67.70750,1395.0
67.72250,1336.0
67.73750,1416.0
67.75250,1387.0
67.76750,1427.0
67.78250,1354.0
67.79750,1376.0
67.81250,1390.0
67.82750,1421.0
67.84250,1337.0
67.85750,1425.0
67.87250,1481.0
67.88750,1395.0
67.90250,1349.0
67.91750,1412.0
67.93250,1404.0
67.94750,1355.0
67.96250,1454.0
67.97750,1386.0
67.99250,1423.0
68.00750,1443.0
68.02250,1402.0
68.03750,1381.0
68.05250,1402.0
68.06750,1405.0
68.08250,1348.0
68.09750,1362.0
68.11250,1424.0
68.12750,1394.0
68.14250,1382.0
68.15750,1382.0
68.17250,1378.0
68.18750,1385.0
68.20250,1319.0
68.21750,1375.0
68.23250,1293.0
68.24750,1424.0
68.26250,1293.0
68.27750,1307.0
68.29250,1396.0
68.30750,1368.0
68.32250,1345.0
68.33750,1366.0
68.35250,1291.0
68.36750,1263.0
68.38250,1332.0
68.39750,1333.0
68.41250,1308.0
68.42750,1331.0
68.44250,1286.0
68.45750,1357.0
68.47250,1278.0
68.48750,1325.0
68.50250,1360.0
68.51750,1333.0
68.53250,1301.0
68.54750,1214.0
68.56250,1352.0
68.57750,1304.0
68.59250,1324.0
68.60750,1333.0
68.62250,1312.0
68.63750,1279.0
68.65250,1270.0
68.66750,1200.0
68.68250,1302.0
68.69750,1299.0
68.71250,1300.0
68.72750,1253.0
68.74250,1237.0
68.75750,1206.0
68.77250,1290.0
68.78750,1293.0
68.80250,1280.0
68.81750,1280.0
68.83250,1273.0
68.84750,1309.0
68.86250,1261.0
68.87750,1259.0
68.89250,1283.0
68.90750,1267.0
68.92250,1262.0
68.93750,1372.0
68.95250,1289.0
68.96750,1318.0
68.98250,1299.0
68.99750,1284.0
69.01250,1254.0
69.02750,1333.0
69.04250,1267.0
69.05750,1364.0
69.07250,1257.0
69.08750,1270.0
69.10250,1267.0
69.11750,1237.0
69.13250,1246.0
69.14750,1322.0
69.16250,1238.0
69.17750,1253.0
69.19250,1318.0
69.20750,1281.0
69.22250,1241.0
69.23750,1273.0
69.25250,1283.0
69.26750,1269.0
69.28250,1301.0
69.29750,1239.0
69.31250,1246.0
69.32750,1180.0
69.34250,1191.0
69.35750,1258.0
69.37250,1199.0
69.38750,1283.0
69.40250,1290.0
69.41750,1181.0
69.43250,1211.0
69.44750,1270.0
69.46250,1236.0
69.47750,1187.0
69.49250,1254.0
69.50750,1212.0
69.52250,1196.0
69.53750,1235.0
69.55250,1256.0
69.56750,1251.0
69.58250,1264.0
69.59750,1137.0
69.61250,1231.0
69.62750,1175.0
69.64250,1196.0
69.65750,1191.0
69.67250,1255.0
69.68750,1213.0
69.70250,1214.0
69.71750,1231.0
69.73250,1192.0
69.74750,1199.0
69.76250,1284.0
69.77750,1272.0
69.79250,1208.0
69.80750,1218.0
69.82250,1234.0
69.83750,1184.0
69.85250,1211.0
69.86750,1195.0
69.88250,1199.0
69.89750,1224.0
69.91250,1178.0
69.92750,1253.0
69.94250,1138.0
69.95750,1202.0
69.97250,1268.0
69.98750,1205.0
70.00250,1251.0
70.01750,1231.0
70.03250,1135.0
70.04750,1256.0
70.06250,1239.0
70.07750,1251.0
70.09250,1220.0
70.10750,1156.0
70.12250,1199.0
70.13750,1217.0
70.15250,1217.0
70.16750,1216.0
70.18250,1147.0
70.19750,1188.0
70.21250,1214.0
70.22750,1245.0
70.24250,1158.0
70.25750,1183.0
70.27250,1175.0
70.28750,1150.0
70.30250,1138.0
70.31750,1164.0
70.33250,1152.0
70.34750,1151.0
70.36250,1131.0
70.37750,1160.0
70.39250,1192.0
70.40750,1141.0
70.42250,1198.0
70.43750,1214.0
70.45250,1167.0
70.46750,1177.0
70.48250,1138.0
70.49750,1160.0
70.51250,1213.0
70.52750,1145.0
70.54250,1215.0
70.55750,1156.0
70.57250,1196.0
70.58750,1188.0
70.60250,1219.0
70.61750,1181.0
70.63250,1192.0
70.64750,1093.0
70.66250,1145.0
70.67750,1219.0
70.69250,1146.0
70.70750,1189.0
70.72250,1175.0
70.73750,1131.0
70.75250,1193.0
70.76750,1109.0
70.78250,1217.0
70.79750,1136.0
70.81250,1203.0
70.82750,1172.0
70.84250,1225.0
70.85750,1122.0
70.87250,1199.0
70.88750,1184.0
70.90250,1184.0
70.91750,1158.0
70.93250,1103.0
70.94750,1246.0
70.96250,1204.0
70.97750,1155.0
70.99250,1166.0
71.00750,1072.0
71.02250,1168.0
71.03750,1165.0
71.05250,1189.0
71.06750,1131.0
71.08250,1171.0
71.09750,1142.0
71.11250,1210.0
71.12750,1204.0
71.14250,1184.0
71.15750,1130.0
71.17250,1161.0
71.18750,1255.0
71.20250,1178.0
71.21750,1178.0
71.23250,1092.0
71.24750,1117.0
71.26250,1067.0
71.27750,1187.0
71.29250,1182.0
71.30750,1163.0
71.32250,1113.0
71.33750,1114.0
71.35250,1053.0
71.36750,1153.0
71.38250,1074.0
71.39750,1075.0
71.41250,1120.0
71.42750,1054.0
71.44250,1114.0
71.45750,1139.0
71.47250,1074.0
71.48750,1109.0
71.50250,1152.0
71.51750,1106.0
71.53250,1069.0
71.54750,1116.0
71.56250,1086.0
71.57750,1063.0
71.59250,1026.0
71.60750,1075.0
71.62250,1145.0
71.63750,1139.0
71.65250,1072.0
71.66750,1071.0
71.68250,1107.0
71.69750,1024.0
71.71250,1126.0
71.72750,1077.0
71.74250,1075.0
71.75750,1089.0
71.77250,1090.0
71.78750,1052.0
71.80250,1096.0
71.81750,1129.0
71.83250,1071.0
71.84750,1104.0
71.86250,1107.0
71.87750,1066.0
71.89250,1113.0
71.90750,1076.0
71.92250,1142.0
71.93750,1051.0
71.95250,1157.0
71.96750,1115.0
71.98250,1168.0
71.99750,1161.0
72.01250,1092.0
72.02750,1123.0
72.04250,1142.0
72.05750,1102.0
72.07250,1127.0
72.08750,1060.0
72.10250,1121.0
72.11750,1120.0
72.13250,1104.0
72.14750,1070.0
72.16250,1124.0
72.17750,1128.0
72.19250,1072.0
72.20750,1172.0
72.22250,1114.0
72.23750,1170.0
72.25250,1151.0
72.26750,1283.0
72.28250,1140.0
72.29750,1274.0
72.31250,1241.0
72.32750,1319.0
72.34250,1407.0
72.35750,1470.0
72.37250,1495.0
72.38750,1515.0
72.40250,1595.0
72.41750,1595.0
72.43250,1704.0
72.44750,1815.0
72.46250,1795.0
72.47750,1961.0
72.49250,2036.0
72.50750,2051.0
72.52250,2171.0
72.53750,2129.0
72.55250,2228.0
72.56750,2208.0
72.58250,2297.0
72.59750,2267.0
72.61250,2195.0
72.62750,2222.0
72.64250,2152.0
72.65750,2235.0
72.67250,2113.0
72.68750,1990.0
72.70250,1967.0
72.71750,1967.0
72.73250,1937.0
72.74750,1807.0
72.76250,1714.0
72.77750,1694.0
72.79250,1664.0
72.80750,1532.0
72.82250,1636.0
72.83750,1440.0
72.85250,1453.0
72.86750,1345.0
72.88250,1252.0
72.89750,1235.0
72.91250,1239.0
72.92750,1173.0
72.94250,1178.0
72.95750,1084.0
72.97250,1133.0
72.98750,1173.0
73.00250,1151.0
73.01750,1132.0
73.03250,1042.0
73.04750,1091.0
73.06250,1062.0
73.07750,1040.0
73.09250,1026.0
73.10750,1075.0
73.12250,1069.0
73.13750,1045.0
73.15250,1085.0
73.16750,1065.0
73.18250,987.0
73.19750,967.0
73.21250,983.0
73.22750,1043.0
73.24250,1086.0
73.25750,1001.0
73.27250,1067.0
73.28750,986.0
73.30250,963.0
73.31750,987.0
73.33250,956.0
73.34750,937.0
73.36250,1049.0
73.37750,1057.0
73.39250,1025.0
73.40750,1036.0
73.42250,982.0
73.43750,920.0
73.45250,985.0
73.46750,1066.0
73.48250,1124.0
73.49750,986.0
73.51250,1033.0
73.52750,1010.0
73.54250,1028.0
73.55750,1046.0
73.57250,1128.0
73.58750,1097.0
73.60250,1115.0
73.61750,1171.0
73.63250,1186.0
73.64750,1167.0
73.66250,1242.0
73.67750,1259.0
73.69250,1260.0
73.70750,1216.0
73.72250,1377.0
73.73750,1261.0
73.75250,1313.0
73.76750,1418.0
73.78250,1328.0
73.79750,1346.0
73.81250,1322.0
73.82750,1359.0
73.84250,1365.0
73.85750,1326.0
73.87250,1360.0
73.88750,1338.0
73.90250,1295.0
73.91750,1241.0
73.93250,1325.0
73.94750,1304.0
73.96250,1257.0
73.97750,1168.0
73.99250,1175.0
74.00750,1189.0
74.02250,1126.0
74.03750,1084.0
74.05250,1016.0
74.06750,1134.0
74.08250,1089.0
74.09750,1061.0
74.11250,980.0
74.12750,1003.0
74.14250,995.0
74.15750,1083.0
74.17250,976.0
74.18750,996.0
74.20250,928.0
74.21750,976.0
74.23250,1012.0
74.24750,968.0
74.26250,951.0
74.27750,1032.0
74.29250,968.0
74.30750,902.0
74.32250,950.0
74.33750,983.0
74.35250,956.0
74.36750,976.0
74.38250,937.0
74.39750,969.0
74.41250,870.0
74.42750,937.0
74.44250,925.0
74.45750,1000.0
74.47250,968.0
74.48750,951.0
74.50250,1011.0
74.51750,952.0
74.53250,897.0
74.54750,967.0
74.56250,929.0
74.57750,967.0
74.59250,966.0
74.60750,938.0
74.62250,918.0
74.63750,948.0
74.65250,979.0
74.66750,944.0
74.68250,990.0
74.69750,968.0
74.71250,1061.0
74.72750,995.0
74.74250,1035.0
74.75750,1109.0
74.77250,1062.0
74.78750,1120.0
74.80250,1130.0
74.81750,1180.0
74.83250,1237.0
74.84750,1215.0
74.86250,1412.0
74.87750,1485.0
74.89250,1565.0
74.90750,1660.0
74.92250,1886.0
74.93750,1871.0
74.95250,1986.0
74.96750,2250.0
74.98250,2262.0
74.99750,2425.0
75.01250,2597.0
75.02750,2603.0
75.04250,2839.0
75.05750,2844.0
75.07250,2973.0
75.08750,2944.0
75.10250,3027.0
75.11750,3034.0
75.13250,3012.0
75.14750,2841.0
75.16250,2939.0
75.17750,2871.0
75.19250,2638.0
75.20750,2673.0
75.22250,2550.0
75.23750,2439.0
75.25250,2540.0
75.26750,2292.0
75.28250,2112.0
75.29750,2088.0
75.31250,1913.0
75.32750,1823.0
75.34250,1683.0
75.35750,1565.0
75.37250,1599.0
75.38750,1476.0
75.40250,1343.0
75.41750,1311.0
75.43250,1245.0
75.44750,1093.0
75.46250,1161.0
75.47750,1075.0
75.49250,1011.0
75.50750,1017.0
75.52250,1030.0
75.53750,1002.0
75.55250,987.0
75.56750,1039.0
75.58250,1001.0
75.59750,947.0
75.61250,982.0
75.62750,996.0
75.64250,968.0
75.65750,1010.0
75.67250,983.0
75.68750,951.0
75.70250,934.0
75.71750,929.0
75.73250,916.0
75.74750,973.0
75.76250,936.0
75.77750,909.0
75.79250,911.0
75.80750,905.0
75.82250,890.0
75.83750,950.0
75.85250,957.0
75.86750,889.0
75.88250,936.0
75.89750,906.0
75.91250,882.0
75.92750,914.0
75.94250,898.0
75.95750,940.0
75.97250,871.0
75.98750,908.0
76.00250,927.0
76.01750,869.0
76.03250,958.0
76.04750,856.0
76.06250,869.0
76.07750,909.0
76.09250,936.0
76.10750,927.0
76.12250,916.0
76.13750,928.0
76.15250,912.0
76.16750,853.0
76.18250,935.0
76.19750,884.0
76.21250,913.0
76.22750,979.0
76.24250,922.0
76.25750,947.0
76.27250,958.0
76.28750,1001.0
76.30250,985.0
76.31750,1019.0
76.33250,973.0
76.34750,1001.0
76.36250,975.0
76.37750,941.0
76.39250,958.0
76.40750,1000.0
76.42250,1106.0
76.43750,1047.0
76.45250,1049.0
76.46750,1032.0
76.48250,1038.0
76.49750,1028.0
76.51250,1010.0
76.52750,1043.0
76.54250,1004.0
76.55750,961.0
76.57250,991.0
76.58750,930.0
76.60250,983.0
76.61750,960.0
76.63250,955.0
76.64750,992.0
76.66250,997.0
76.67750,891.0
76.69250,940.0
76.70750,912.0
76.72250,908.0
76.73750,903.0
76.75250,864.0
76.76750,886.0
76.78250,919.0
76.79750,942.0
76.81250,863.0
76.82750,830.0
76.84250,850.0
76.85750,858.0
76.87250,818.0
76.88750,801.0
76.90250,823.0
76.91750,856.0
76.93250,829.0
76.94750,811.0
76.96250,811.0
76.97750,783.0
76.99250,890.0
77.00750,821.0
77.02250,866.0
77.03750,777.0
77.05250,823.0
77.06750,907.0
77.08250,834.0
77.09750,807.0
77.11250,838.0
77.12750,768.0
77.14250,703.0
77.15750,837.0
77.17250,840.0
77.18750,801.0
77.20250,804.0
77.21750,825.0
77.23250,866.0
77.24750,804.0
77.26250,831.0
77.27750,889.0
77.29250,769.0
77.30750,842.0
77.32250,808.0
77.33750,841.0
77.35250,840.0
77.36750,797.0
77.38250,832.0
77.39750,753.0
77.41250,795.0
77.42750,811.0
77.44250,857.0
77.45750,793.0
77.47250,748.0
77.48750,837.0
77.50250,747.0
77.51750,808.0
77.53250,770.0
77.54750,807.0
77.56250,793.0
77.57750,858.0
77.59250,748.0
77.60750,805.0
77.62250,760.0
77.63750,782.0
77.65250,794.0
77.66750,793.0
77.68250,843.0
77.69750,780.0
77.71250,750.0
77.72750,735.0
77.74250,844.0
77.75750,830.0
77.77250,809.0
77.78750,844.0
77.80250,807.0
77.81750,837.0
77.83250,824.0
77.84750,844.0
77.86250,751.0
77.87750,844.0
77.89250,810.0
77.90750,818.0
77.92250,759.0
77.93750,843.0
77.95250,816.0
77.96750,796.0
77.98250,872.0
77.99750,807.0
78.01250,897.0
78.02750,849.0
78.04250,787.0
78.05750,833.0
78.07250,819.0
78.08750,795.0
78.10250,803.0
78.11750,841.0
78.13250,782.0
78.14750,798.0
78.16250,838.0
78.17750,785.0
78.19250,844.0
78.20750,794.0
78.22250,839.0
78.23750,818.0
78.25250,826.0
78.26750,829.0
78.28250,732.0
78.29750,824.0
78.31250,850.0
78.32750,790.0
78.34250,820.0
78.35750,838.0
78.37250,791.0
78.38750,826.0
78.40250,811.0
78.41750,859.0
78.43250,788.0
78.44750,754.0
78.46250,766.0
78.47750,842.0
78.49250,794.0
78.50750,746.0
78.52250,744.0
78.53750,778.0
78.55250,794.0
78.56750,729.0
78.58250,791.0
78.59750,802.0
78.61250,749.0
78.62750,845.0
78.64250,754.0
78.65750,774.0
78.67250,774.0
78.68750,773.0
78.70250,767.0
78.71750,746.0
78.73250,808.0
78.74750,796.0
78.76250,801.0
78.77750,789.0
78.79250,779.0
78.80750,793.0
78.82250,768.0
78.83750,755.0
78.85250,800.0
78.86750,745.0
78.88250,747.0
78.89750,745.0
78.91250,822.0
78.92750,798.0
78.94250,819.0
78.95750,769.0
78.97250,802.0
78.98750,780.0
79.00250,754.0
79.01750,849.0
79.03250,776.0
79.04750,751.0
79.06250,763.0
79.07750,711.0
79.09250,746.0
79.10750,790.0
79.12250,770.0
79.13750,765.0
79.15250,765.0
79.16750,804.0
79.18250,844.0
79.19750,786.0
79.21250,775.0
79.22750,775.0
79.24250,710.0
79.25750,756.0
79.27250,741.0
79.28750,747.0
79.30250,796.0
79.31750,711.0
79.33250,753.0
79.34750,737.0
79.36250,742.0
79.37750,738.0
79.39250,727.0
79.40750,775.0
79.42250,752.0
79.43750,782.0
79.45250,717.0
79.46750,727.0
79.48250,744.0
79.49750,737.0
79.51250,740.0
79.52750,732.0
79.54250,783.0
79.55750,671.0
79.57250,751.0
79.58750,741.0
79.60250,749.0
79.61750,694.0
79.63250,769.0
79.64750,745.0
79.66250,757.0
79.67750,716.0
79.69250,783.0
79.70750,778.0
79.72250,756.0
79.73750,744.0
79.75250,761.0
79.76750,757.0
79.78250,800.0
79.79750,750.0
79.81250,795.0
79.82750,772.0
79.84250,703.0
79.85750,802.0
79.87250,812.0
79.88750,795.0
79.90250,743.0
79.91750,815.0
79.93250,733.0
79.94750,746.0
79.96250,789.0
79.97750,698.0
79.99250,733.0
80.00750,759.0
80.02250,768.0
80.03750,751.0
80.05250,722.0
80.06750,696.0
80.08250,799.0
80.09750,771.0
80.11250,730.0
80.12750,681.0
80.14250,740.0
80.15750,720.0
80.17250,777.0
80.18750,724.0
80.20250,756.0
80.21750,724.0
80.23250,727.0
80.24750,729.0
80.26250,699.0
80.27750,787.0
80.29250,731.0
80.30750,757.0
80.32250,701.0
80.33750,680.0
80.35250,725.0
80.36750,743.0
80.38250,714.0
80.39750,677.0
80.41250,717.0
80.42750,757.0
80.44250,768.0
80.45750,690.0
80.47250,741.0
80.48750,710.0
80.50250,759.0
80.51750,734.0
80.53250,704.0
80.54750,710.0
80.56250,763.0
80.57750,733.0
80.59250,692.0
80.60750,716.0
80.62250,751.0
80.63750,769.0
80.65250,737.0
80.66750,762.0
80.68250,691.0
80.69750,759.0
80.71250,713.0
80.72750,707.0
80.74250,746.0
80.75750,692.0
80.77250,715.0
80.78750,753.0
80.80250,777.0
80.81750,668.0
80.83250,732.0
80.84750,674.0
80.86250,714.0
80.87750,751.0
80.89250,728.0
80.90750,742.0
80.92250,685.0
80.93750,742.0
80.95250,722.0
80.96750,735.0
80.98250,746.0
80.99750,821.0
81.01250,739.0
81.02750,730.0
81.04250,683.0
81.05750,722.0
81.07250,730.0
81.08750,724.0
81.10250,734.0
81.11750,696.0
81.13250,708.0
81.14750,673.0
81.16250,737.0
81.17750,673.0
81.19250,752.0
81.20750,715.0
81.22250,707.0
81.23750,676.0
81.25250,732.0
81.26750,740.0
81.28250,744.0
81.29750,694.0
81.31250,716.0
81.32750,683.0
81.34250,748.0
81.35750,699.0
81.37250,718.0
81.38750,698.0
81.40250,688.0
81.41750,736.0
81.43250,715.0
81.44750,746.0
81.46250,747.0
81.47750,706.0
81.49250,743.0
81.50750,714.0
81.52250,663.0
81.53750,743.0
81.55250,785.0
81.56750,694.0
81.58250,716.0
81.59750,750.0
81.61250,675.0
81.62750,739.0
81.64250,721.0
81.65750,725.0
81.67250,708.0
81.68750,716.0
81.70250,743.0
81.71750,793.0
81.73250,689.0
81.74750,742.0
81.76250,731.0
81.77750,788.0
81.79250,756.0
81.80750,771.0
81.82250,776.0
81.83750,798.0
81.85250,794.0
81.86750,809.0
81.88250,842.0
81.89750,827.0
81.91250,892.0
81.92750,920.0
81.94250,930.0
81.95750,937.0
81.97250,960.0
81.98750,1025.0
82.00250,963.0
82.01750,1023.0
82.03250,950.0
82.04750,969.0
82.06250,1035.0
82.07750,1019.0
82.09250,1023.0
82.10750,971.0
82.12250,1005.0
82.13750,1038.0
82.15250,1062.0
82.16750,1017.0
82.18250,1060.0
82.19750,966.0
82.21250,1030.0
82.22750,1040.0
82.24250,1107.0
82.25750,966.0
82.27250,1095.0
82.28750,975.0
82.30250,1050.0
82.31750,1061.0
82.33250,1000.0
82.34750,1044.0
82.36250,1050.0
82.37750,1029.0
82.39250,1013.0
82.40750,1064.0
82.42250,1052.0
82.43750,1069.0
82.45250,1101.0
82.46750,1134.0
82.48250,1006.0
82.49750,1076.0
82.51250,1249.0
82.52750,1271.0
82.54250,1350.0
82.55750,1443.0
82.57250,1653.0
82.58750,1856.0
82.60250,2153.0
82.61750,2539.0
82.63250,2907.0
82.64750,3346.0
82.66250,3782.0
82.67750,4295.0
82.69250,4818.0
82.70750,5625.0
82.72250,6322.0
82.73750,6942.0
82.75250,7464.0
82.76750,8048.0
82.78250,8912.0
82.79750,9138.0
82.81250,9857.0
82.82750,10395.0
82.84250,10885.0
82.85750,10978.0
82.87250,11474.0
82.88750,11293.0
82.90250,11394.0
82.91750,11504.0
82.93250,11148.0
82.94750,10983.0
82.96250,10627.0
82.97750,10171.0
82.99250,9798.0
83.00750,9589.0
83.02250,8968.0
83.03750,8731.0
83.05250,8000.0
83.06750,7343.0
83.08250,6857.0
83.09750,6308.0
83.11250,5919.0
83.12750,5338.0
83.14250,4936.0
83.15750,4402.0
83.17250,3968.0
83.18750,3589.0
83.20250,3228.0
83.21750,2701.0
83.23250,2491.0
83.24750,2206.0
83.26250,1985.0
83.27750,1716.0
83.29250,1701.0
83.30750,1489.0
83.32250,1408.0
83.33750,1401.0
83.35250,1290.0
83.36750,1250.0
83.38250,1192.0
83.39750,1161.0
83.41250,1110.0
83.42750,1135.0
83.44250,1089.0
83.45750,1071.0
83.47250,1075.0
83.48750,1025.0
83.50250,1047.0
83.51750,1115.0
83.53250,969.0
83.54750,1075.0
83.56250,998.0
83.57750,1009.0
83.59250,947.0
83.60750,926.0
83.62250,991.0
83.63750,982.0
83.65250,959.0
83.66750,959.0
83.68250,944.0
83.69750,913.0
83.71250,999.0
83.72750,881.0
83.74250,995.0
83.75750,933.0
83.77250,875.0
83.78750,839.0
83.80250,847.0
83.81750,911.0
83.83250,931.0
83.84750,871.0
83.86250,870.0
83.87750,921.0
83.89250,906.0
83.90750,865.0
83.92250,888.0
83.93750,877.0
83.95250,960.0
83.96750,892.0
83.98250,806.0
83.99750,901.0
84.01250,883.0
84.02750,879.0
84.04250,893.0
84.05750,923.0
84.07250,814.0
84.08750,861.0
84.10250,879.0
84.11750,818.0
84.13250,815.0
84.14750,840.0
84.16250,784.0
84.17750,847.0
84.19250,913.0
84.20750,854.0
84.22250,871.0
84.23750,842.0
84.25250,845.0
84.26750,807.0
84.28250,809.0
84.29750,828.0
84.31250,838.0
84.32750,831.0
84.34250,779.0
84.35750,849.0
84.37250,770.0
84.38750,855.0
84.40250,806.0
84.41750,828.0
84.43250,799.0
84.44750,899.0
84.46250,804.0
84.47750,816.0
84.49250,801.0
84.50750,762.0
84.52250,828.0
84.53750,774.0
84.55250,842.0
84.56750,856.0
84.58250,865.0
84.59750,872.0
84.61250,799.0
84.62750,810.0
84.64250,831.0
84.65750,857.0
84.67250,850.0
84.68750,801.0
84.70250,927.0
84.71750,855.0
84.73250,859.0
84.74750,800.0
84.76250,858.0
84.77750,819.0
84.79250,855.0
84.80750,842.0
84.82250,850.0
84.83750,873.0
84.85250,857.0
84.86750,808.0
84.88250,813.0
84.89750,858.0
84.91250,855.0
84.92750,820.0
84.94250,802.0
84.95750,858.0
84.97250,847.0
84.98750,848.0
85.00250,886.0
85.01750,879.0
85.03250,867.0
85.04750,809.0
85.06250,831.0
85.07750,845.0
85.09250,775.0
85.10750,864.0
85.12250,804.0
85.13750,852.0
85.15250,820.0
85.16750,793.0
85.18250,849.0
85.19750,857.0
85.21250,856.0
85.22750,808.0
85.24250,802.0
85.25750,728.0
85.27250,785.0
85.28750,845.0
85.30250,814.0
85.31750,840.0
85.33250,852.0
85.34750,751.0
85.36250,835.0
85.37750,883.0
85.39250,839.0
85.40750,793.0
85.42250,782.0
85.43750,796.0
85.45250,839.0
85.46750,799.0
85.48250,781.0
85.49750,811.0
85.51250,835.0
85.52750,823.0
85.54250,824.0
85.55750,762.0
85.57250,748.0
85.58750,767.0
85.60250,801.0
85.61750,718.0
85.63250,789.0
85.64750,789.0
85.66250,800.0
85.67750,779.0
85.69250,843.0
85.70750,840.0
85.72250,850.0
85.73750,735.0
85.75250,776.0
85.76750,768.0
85.78250,787.0
85.79750,742.0
85.81250,804.0
85.82750,811.0
85.84250,764.0
85.85750,775.0
85.87250,824.0
85.88750,743.0
85.90250,809.0
85.91750,821.0
85.93250,857.0
85.94750,799.0
85.96250,795.0
85.97750,774.0
85.99250,830.0
86.00750,768.0
86.02250,749.0
86.03750,790.0
86.05250,817.0
86.06750,795.0
86.08250,764.0
86.09750,767.0
86.11250,763.0
86.12750,806.0
86.14250,762.0
86.15750,773.0
86.17250,790.0
86.18750,791.0
86.20250,801.0
86.21750,819.0
86.23250,858.0
86.24750,764.0
86.26250,803.0
86.27750,769.0
86.29250,797.0
86.30750,871.0
86.32250,754.0
86.33750,775.0
86.35250,756.0
86.36750,772.0
86.38250,768.0
86.39750,789.0
86.41250,805.0
86.42750,747.0
86.44250,720.0
86.45750,735.0
86.47250,765.0
86.48750,806.0
86.50250,851.0
86.51750,765.0
86.53250,783.0
86.54750,808.0
86.56250,806.0
86.57750,839.0
86.59250,734.0
86.60750,758.0
86.62250,819.0
86.63750,841.0
86.65250,852.0
86.66750,814.0
86.68250,735.0
86.69750,750.0
86.71250,808.0
86.72750,747.0
86.74250,820.0
86.75750,860.0
86.77250,785.0
86.78750,794.0
86.80250,834.0
86.81750,799.0
86.83250,817.0
86.84750,840.0
86.86250,810.0
86.87750,895.0
86.89250,853.0
86.90750,784.0
86.92250,845.0
86.93750,855.0
86.95250,844.0
86.96750,832.0
86.98250,845.0
86.99750,825.0
87.01250,814.0
87.02750,846.0
87.04250,883.0
87.05750,900.0
87.07250,901.0
87.08750,880.0
87.10250,827.0
87.11750,849.0
87.13250,932.0
87.14750,833.0
87.16250,851.0
87.17750,932.0
87.19250,892.0
87.20750,969.0
87.22250,959.0
87.23750,958.0
87.25250,922.0
87.26750,973.0
87.28250,986.0
87.29750,968.0
87.31250,1129.0
87.32750,1042.0
87.34250,1057.0
87.35750,1077.0
87.37250,1083.0
87.38750,1165.0
87.40250,1170.0
87.41750,1151.0
87.43250,1147.0
87.44750,1233.0
87.46250,1265.0
87.47750,1286.0
87.49250,1292.0
87.50750,1282.0
87.52250,1305.0
87.53750,1364.0
87.55250,1376.0
87.56750,1413.0
87.58250,1412.0
87.59750,1479.0
87.61250,1568.0
87.62750,1527.0
87.64250,1590.0
87.65750,1669.0
87.67250,1651.0
87.68750,1722.0
87.70250,1789.0
87.71750,1854.0
87.73250,1845.0
87.74750,1946.0
87.76250,1981.0
87.77750,2138.0
87.79250,2237.0
87.80750,2161.0
87.82250,2323.0
87.83750,2231.0
87.85250,2375.0
87.86750,2486.0
87.88250,2697.0
87.89750,2673.0
87.91250,2855.0
87.92750,2920.0
87.94250,3096.0
87.95750,3263.0
87.97250,3331.0
87.98750,3479.0
88.00250,3521.0
88.01750,3687.0
88.03250,3791.0
88.04750,3975.0
88.06250,4067.0
88.07750,4413.0
88.09250,4608.0
88.10750,4712.0
88.12250,4757.0
88.13750,5142.0
88.15250,5276.0
88.16750,5343.0
88.18250,5601.0
88.19750,6085.0
88.21250,6037.0
88.22750,6552.0
88.24250,6391.0
88.25750,6608.0
88.27250,6889.0
88.28750,6987.0
88.30250,7139.0
88.31750,7391.0
88.33250,7472.0
88.34750,7708.0
88.36250,7925.0
88.37750,8252.0
88.39250,8262.0
88.40750,8539.0
88.42250,8568.0
88.43750,8534.0
88.45250,8802.0
88.46750,8741.0
88.48250,8668.0
88.49750,8845.0
88.51250,8862.0
88.52750,8824.0
88.54250,8804.0
88.55750,8662.0
88.57250,8669.0
88.58750,8535.0
88.60250,8395.0
88.61750,8485.0
88.63250,8290.0
88.64750,8309.0
88.66250,8098.0
88.67750,8019.0
88.69250,7773.0
88.70750,7638.0
88.72250,7622.0
88.73750,7439.0
88.75250,7281.0
88.76750,6970.0
88.78250,6837.0
88.79750,6723.0
88.81250,6468.0
88.82750,6504.0
88.84250,6161.0
88.85750,6011.0
88.87250,5943.0
88.88750,5729.0
88.90250,5576.0
88.91750,5416.0
88.93250,5230.0
88.94750,5110.0
88.96250,4858.0
88.97750,4835.0
88.99250,4960.0
89.00750,4668.0
89.02250,4494.0
89.03750,4379.0
89.05250,4297.0
89.06750,4144.0
89.08250,4099.0
89.09750,3966.0
89.11250,3924.0
89.12750,3738.0
89.14250,3654.0
89.15750,3588.0
89.17250,3433.0
89.18750,3386.0
89.20250,3189.0
89.21750,3264.0
89.23250,3046.0
89.24750,2996.0
89.26250,2850.0
89.27750,2872.0
89.29250,2704.0
89.30750,2640.0
89.32250,2487.0
89.33750,2519.0
89.35250,2393.0
89.36750,2226.0
89.38250,2166.0
89.39750,2138.0
89.41250,1999.0
89.42750,1987.0
89.44250,1893.0
89.45750,1891.0
89.47250,1883.0
89.48750,1808.0
89.50250,1746.0
89.51750,1640.0
89.53250,1754.0
89.54750,1514.0
89.56250,1528.0
89.57750,1601.0
89.59250,1478.0
89.60750,1425.0
89.62250,1445.0
89.63750,1467.0
89.65250,1411.0
89.66750,1427.0
89.68250,1427.0
89.69750,1479.0
89.71250,1540.0
89.72750,1659.0
89.74250,1683.0
89.75750,1791.0
89.77250,1852.0
89.78750,2062.0
89.80250,2296.0
89.81750,2475.0
89.83250,2688.0
89.84750,2860.0
89.86250,3269.0
89.87750,3564.0
89.89250,4065.0
89.90750,4445.0
89.92250,5077.0
89.93750,5348.0
89.95250,5799.0
89.96750,6406.0
89.98250,7098.0
89.99750,7677.0
